window_idx,pred_command,confidence,pose0,pose1,pose2,pose3,pose4,pose5,pose6,pose7,pose8,pose9,pose10,pose11,pose12,pose13,pose14,pose15,pose16,pose17,pose18,pose19
0,2,0.1619,0.2774,0.0713,0.6561,0.7750,0.0682,0.2324,1.0351,0.1978,-0.0476,0.4044,0.8751,0.4087,-0.0901,0.3808,0.7033,0.7094,-0.4288,-0.3939,1.7153,1.3755
1,0,0.2060,0.2152,-0.0479,0.6834,0.8234,0.1249,0.1698,1.0219,0.2414,-0.0678,0.3554,0.8817,0.4388,-0.1582,0.3374,0.8140,0.5670,-0.2896,-0.0664,1.1322,0.9219
2,0,0.1806,0.0911,-0.2288,0.6607,0.7345,0.2439,0.1066,0.8898,0.3804,-0.0940,0.3141,0.7796,0.5006,-0.2707,0.2444,0.7756,0.5537,-0.3784,0.2790,0.5862,0.4819
6,3,0.1803,0.0720,-0.3324,0.6792,0.6498,0.2862,0.1883,0.7010,0.4938,-0.1452,0.2580,0.7144,0.6256,-0.2987,0.2086,0.6852,0.5919,-0.4700,0.3141,0.4675,0.4518
11,0,0.2625,0.0697,-0.3899,0.6934,0.7720,0.3540,0.2005,0.4895,0.5392,-0.0822,0.1830,0.7436,0.7362,-0.3465,0.1679,0.7429,0.6562,-0.5485,0.2706,0.5978,0.5463
15,3,0.2028,0.0242,-0.3900,0.6698,0.6313,0.3370,0.0842,0.5076,0.4933,-0.1330,0.1870,0.6528,0.6501,-0.3371,0.1792,0.6413,0.5882,-0.5389,0.3264,0.4759,0.4627
18,3,0.2804,0.0293,-0.2732,0.6638,0.7753,0.2818,0.1694,0.6650,0.4669,-0.0767,0.2818,0.7470,0.6386,-0.2856,0.2124,0.7947,0.6762,-0.4204,0.2567,0.5007,0.4994
19,3,0.1656,0.0262,-0.3511,0.6612,0.7113,0.3617,0.1646,0.6094,0.4802,-0.0375,0.2389,0.7326,0.6213,-0.3184,0.1882,0.7773,0.6539,-0.5304,0.3868,0.5117,0.5113
20,1,0.2319,0.0742,-0.3355,0.6577,0.6583,0.3436,0.1797,0.5906,0.4923,-0.0690,0.2117,0.7483,0.6413,-0.3245,0.2158,0.7876,0.6823,-0.5169,0.3707,0.6259,0.6405
21,0,0.1996,0.1228,-0.1866,0.6349,0.7773,0.1165,0.1242,0.7542,0.4131,-0.1678,0.2607,0.8686,0.6028,-0.2910,0.3149,0.8625,0.6752,-0.4268,0.4658,0.6356,0.6582
22,3,0.2026,0.0917,-0.2316,0.6158,0.7298,0.1390,0.0545,0.6623,0.3904,-0.1623,0.2263,0.7858,0.5550,-0.3181,0.2521,0.7797,0.5994,-0.5142,0.5574,0.4760,0.4874
23,3,0.1824,0.0625,-0.3691,0.6305,0.5335,0.3458,0.0595,0.5311,0.4621,-0.0926,0.1934,0.6231,0.5741,-0.3485,0.1905,0.6644,0.5717,-0.6188,0.5515,0.4455,0.4552
24,0,0.1662,0.1021,-0.3289,0.6497,0.5012,0.3130,0.0815,0.6166,0.4592,-0.1157,0.2420,0.7004,0.6010,-0.3238,0.2575,0.7486,0.6363,-0.5303,0.4729,0.6112,0.6134
25,2,0.2097,0.1669,-0.1992,0.6336,0.6166,0.1611,0.1493,0.7396,0.3807,-0.1599,0.3080,0.8268,0.5833,-0.2745,0.2735,0.8628,0.6714,-0.3604,0.2675,0.7218,0.6821
28,0,0.3038,0.2162,-0.1560,0.5995,0.7457,0.0530,0.3086,0.7545,0.3455,-0.1693,0.2899,0.7270,0.4794,-0.2946,0.1522,0.8000,0.5288,-0.3539,0.3182,0.6197,0.4740
29,0,0.3781,0.2381,-0.1055,0.6035,0.8422,-0.0075,0.3286,0.8963,0.3198,-0.2001,0.3544,0.8046,0.4707,-0.2672,0.2193,0.8433,0.5478,-0.3164,0.3028,0.6378,0.5115
30,0,0.1449,0.1603,-0.1396,0.6327,0.8790,0.0807,0.2385,0.9309,0.3441,-0.1626,0.3358,0.8466,0.5000,-0.2469,0.2035,0.8701,0.5802,-0.3472,0.2825,0.5901,0.5088
32,0,0.3712,0.0460,-0.3371,0.6599,0.6801,0.2920,0.2565,0.4941,0.4390,-0.1337,0.2179,0.7015,0.6014,-0.3270,0.1761,0.7064,0.5696,-0.4833,0.2716,0.5408,0.4430
33,3,0.1529,0.0430,-0.2863,0.6401,0.7839,0.2279,0.2802,0.6384,0.4136,-0.1439,0.2669,0.7538,0.5956,-0.3012,0.1741,0.7889,0.6132,-0.4320,0.2452,0.5766,0.5182
35,3,0.2634,0.0834,-0.4080,0.6742,0.6809,0.3890,0.2148,0.6379,0.6394,-0.0140,0.1204,0.7369,0.7634,-0.3358,0.1218,0.7491,0.7012,-0.5649,0.3645,0.6024,0.6815
36,0,0.2814,0.0342,-0.3748,0.6953,0.7741,0.3264,0.3178,0.6418,0.5629,-0.0382,0.2716,0.6675,0.7178,-0.3087,0.2634,0.6912,0.7051,-0.4609,0.3060,0.6079,0.6989
38,3,0.1697,-0.0218,-0.4443,0.6879,0.5808,0.4401,0.1850,0.4304,0.5050,0.0139,0.1922,0.5989,0.6538,-0.3138,0.1360,0.7438,0.6768,-0.5268,0.2066,0.5837,0.5373
39,3,0.5482,-0.0120,-0.4056,0.6727,0.6004,0.4130,0.2142,0.4679,0.5339,0.0184,0.2108,0.6531,0.6825,-0.3340,0.2188,0.7672,0.7117,-0.5162,0.2512,0.6697,0.6212
40,3,0.4888,-0.0713,-0.3575,0.6664,0.6153,0.3948,0.2117,0.4248,0.4963,-0.0068,0.2682,0.5910,0.6796,-0.3182,0.2736,0.6944,0.6963,-0.4690,0.3092,0.6259,0.6411
41,3,0.5992,-0.1155,-0.3643,0.6792,0.6225,0.4492,0.2193,0.4779,0.4457,0.0291,0.3308,0.5534,0.6586,-0.2996,0.3127,0.6321,0.6524,-0.5513,0.4635,0.4969,0.5660
43,3,0.1586,-0.1524,-0.3340,0.7735,1.0818,0.3778,0.1982,0.9171,0.7214,0.0432,0.4248,0.7726,0.8336,-0.2666,0.3946,0.8278,0.8254,-0.5079,0.5332,0.5379,0.6643
46,3,0.1826,-0.1155,-0.3473,0.6691,0.4567,0.4444,0.1906,0.3936,0.4066,0.0581,0.3042,0.5245,0.5309,-0.2677,0.3509,0.6586,0.6202,-0.6351,0.6680,0.3968,0.4495
47,0,0.6208,-0.1027,-0.3567,0.6569,0.3314,0.4293,0.2323,0.4474,0.4283,0.0562,0.4047,0.5425,0.6134,-0.2738,0.3714,0.7352,0.6996,-0.5557,0.5454,0.5357,0.5884
48,1,0.2104,-0.1677,-0.3096,0.6392,0.4544,0.4088,0.2502,0.4492,0.4100,0.0189,0.4415,0.5625,0.6367,-0.2639,0.3533,0.7385,0.7124,-0.4547,0.4270,0.5909,0.6301
49,3,0.2839,-0.1758,-0.2979,0.6217,0.4450,0.4130,0.2285,0.4112,0.3925,-0.0191,0.4040,0.5760,0.6234,-0.2730,0.3684,0.6722,0.6605,-0.5183,0.5380,0.4503,0.5032
50,0,0.2553,-0.1501,-0.3159,0.6095,0.4196,0.4133,0.2170,0.4517,0.3992,-0.0070,0.3789,0.6075,0.6101,-0.2730,0.3734,0.6723,0.6424,-0.5629,0.6040,0.3975,0.4519
51,0,0.3542,-0.1152,-0.3014,0.6187,0.4601,0.3837,0.2313,0.5378,0.3893,-0.0370,0.3772,0.6393,0.5852,-0.2757,0.3193,0.7287,0.6704,-0.4757,0.4237,0.5169,0.5415
54,0,0.5759,-0.0986,-0.3063,0.6126,0.5499,0.3658,0.3185,0.5086,0.5319,-0.0912,0.2720,0.5226,0.5934,-0.2452,0.1122,0.6642,0.5351,-0.3903,0.0125,0.5447,0.3278
55,0,0.3240,-0.0520,-0.2601,0.6078,0.6717,0.2362,0.2916,0.6488,0.4304,-0.1257,0.3736,0.5746,0.5430,-0.2587,0.2097,0.6908,0.5181,-0.3838,0.0912,0.5399,0.3136
58,0,0.3099,0.0373,-0.3433,0.6342,0.5846,0.3812,0.2454,0.5723,0.5172,-0.0350,0.2289,0.5758,0.5684,-0.3273,0.1223,0.6183,0.5083,-0.4526,0.0457,0.4743,0.2481
59,0,0.5343,0.0270,-0.2851,0.6378,0.6779,0.2837,0.2861,0.6794,0.4490,-0.0130,0.3994,0.6265,0.5540,-0.2614,0.2199,0.7455,0.5435,-0.3888,0.0740,0.5348,0.3017
60,0,0.1453,-0.0318,-0.3229,0.6577,0.6795,0.3142,0.2433,0.6116,0.4233,-0.0271,0.3780,0.5839,0.5312,-0.2481,0.2095,0.7096,0.5307,-0.4106,0.1343,0.4896,0.2969
61,0,0.3703,-0.0530,-0.3680,0.6475,0.5289,0.4017,0.1695,0.3505,0.4072,-0.1055,0.2232,0.4390,0.4759,-0.2979,0.1182,0.5172,0.4372,-0.4637,0.1316,0.3774,0.1857
62,0,0.3433,-0.0404,-0.3341,0.6316,0.5256,0.3924,0.1670,0.2736,0.3742,-0.1016,0.2531,0.4026,0.4581,-0.2978,0.1340,0.5367,0.4305,-0.4437,0.1065,0.4280,0.1903
63,0,0.2581,0.0046,-0.3306,0.6696,0.6406,0.4080,0.2263,0.4270,0.4384,-0.0007,0.2519,0.5635,0.5128,-0.2754,0.1290,0.6815,0.5158,-0.4675,0.1722,0.4675,0.2794
64,0,0.3739,0.0595,-0.3487,0.6841,0.7374,0.4192,0.2877,0.6098,0.4787,0.0797,0.2175,0.7202,0.5353,-0.2563,0.0981,0.7679,0.5573,-0.4826,0.2001,0.4492,0.3051
65,0,0.2664,0.0112,-0.3693,0.6470,0.6926,0.4222,0.2715,0.5052,0.4428,0.0425,0.2099,0.6290,0.5220,-0.2719,0.0820,0.7087,0.5271,-0.4756,0.1286,0.4295,0.2738
66,3,0.3069,-0.0605,-0.3937,0.6179,0.3479,0.4340,0.2456,0.3127,0.4192,-0.0144,0.2139,0.4516,0.4977,-0.2890,0.0817,0.5593,0.4742,-0.4870,0.1017,0.3900,0.2176
67,3,0.4261,-0.1156,-0.3809,0.5683,-0.0233,0.4327,0.1785,0.0886,0.3150,-0.0980,0.2950,0.2113,0.3655,-0.2816,0.1287,0.3613,0.3523,-0.5159,0.1562,0.3231,0.1147
69,3,0.2249,-0.1676,-0.2895,0.6207,0.5060,0.3303,0.2455,0.4998,0.2471,-0.1246,0.6431,0.3479,0.3945,-0.2799,0.2749,0.5414,0.4544,-0.4732,0.1439,0.3224,0.1042
70,0,0.1703,-0.1572,-0.3217,0.6220,0.5337,0.3869,0.2151,0.4256,0.3777,-0.1355,0.4436,0.3329,0.4518,-0.2996,0.2072,0.4996,0.4575,-0.5153,0.1863,0.3268,0.1298
72,0,0.3394,-0.0239,-0.2833,0.6052,0.6227,0.3211,0.1888,0.4569,0.3987,-0.1658,0.3266,0.3781,0.4310,-0.3151,0.1603,0.5069,0.4257,-0.4739,0.1919,0.3636,0.2072
74,0,0.6271,0.0089,-0.3121,0.5823,0.6277,0.2286,0.1639,0.4823,0.4633,-0.1260,0.1427,0.5273,0.4961,-0.2900,0.0860,0.5774,0.4478,-0.4684,0.3262,0.2902,0.2163
75,0,0.3925,0.0836,-0.3044,0.5895,0.5754,0.1938,0.1573,0.5744,0.4468,-0.1484,0.1941,0.6727,0.5419,-0.3077,0.1220,0.7030,0.5125,-0.4697,0.3208,0.3756,0.2737
77,0,0.2425,0.0869,-0.3953,0.5963,0.1905,0.3817,0.1485,0.5228,0.4914,-0.0434,0.1379,0.6748,0.5897,-0.2829,0.0003,0.7255,0.5540,-0.4651,0.0720,0.4696,0.2999
78,0,0.6404,0.0441,-0.3980,0.5955,0.1008,0.3987,0.1543,0.4033,0.4788,-0.0712,0.1748,0.5214,0.5306,-0.3046,0.0795,0.5918,0.4873,-0.4736,0.1134,0.4243,0.2301
79,0,0.7982,0.0071,-0.3517,0.6013,0.2579,0.3557,0.1797,0.4748,0.4379,-0.0964,0.2823,0.5342,0.5270,-0.3233,0.1690,0.6138,0.5067,-0.4550,0.1718,0.4388,0.2721
80,0,0.8798,-0.0244,-0.3281,0.6200,0.4943,0.3793,0.2725,0.4705,0.4291,-0.0589,0.2994,0.5437,0.5102,-0.3122,0.1446,0.6514,0.5114,-0.4568,0.1561,0.4708,0.2939
81,0,0.7506,0.0021,-0.3093,0.6206,0.5857,0.4131,0.3364,0.4346,0.4241,-0.0300,0.2658,0.5458,0.4909,-0.3026,0.1063,0.6593,0.4977,-0.4625,0.1305,0.4759,0.2780
82,0,0.5130,0.0129,-0.2817,0.6091,0.6189,0.3706,0.3140,0.4767,0.3901,-0.0683,0.3030,0.5535,0.4735,-0.3176,0.1537,0.6448,0.4919,-0.4650,0.1885,0.4663,0.2864
83,0,0.2235,-0.0048,-0.2726,0.6120,0.6319,0.3165,0.2957,0.5194,0.3741,-0.0892,0.3690,0.5447,0.4730,-0.3167,0.1889,0.6458,0.5040,-0.4459,0.2016,0.4652,0.3091
84,0,0.5011,-0.0332,-0.3123,0.6279,0.6008,0.3244,0.2776,0.4999,0.4208,-0.0889,0.3559,0.5193,0.5019,-0.3009,0.1585,0.6494,0.5107,-0.4457,0.1457,0.4805,0.3053
85,0,0.5131,-0.0417,-0.3384,0.6217,0.5364,0.3509,0.2535,0.4471,0.4493,-0.0897,0.2914,0.5176,0.5168,-0.2882,0.1221,0.6408,0.4953,-0.4540,0.1286,0.4830,0.2905
86,0,0.7217,-0.0092,-0.2837,0.5994,0.5627,0.2926,0.2544,0.4823,0.3916,-0.0982,0.3045,0.5514,0.4857,-0.2859,0.1403,0.6459,0.4781,-0.4294,0.1313,0.4797,0.2811
87,0,0.1577,-0.0357,-0.2674,0.6081,0.6130,0.2918,0.2701,0.4727,0.3846,-0.0884,0.3431,0.5215,0.4856,-0.2848,0.1523,0.6405,0.4795,-0.4377,0.1078,0.4746,0.2570
88,0,0.1590,-0.0739,-0.3060,0.6190,0.5220,0.3745,0.2657,0.3736,0.4366,-0.0665,0.2955,0.4416,0.4970,-0.2638,0.1199,0.5766,0.4564,-0.4787,0.0809,0.4421,0.1982
89,0,0.3840,-0.0005,-0.2742,0.5963,0.4861,0.3607,0.2555,0.4086,0.4140,-0.0881,0.2537,0.4634,0.4737,-0.2749,0.1097,0.5611,0.4425,-0.4673,0.1358,0.4197,0.2208
90,3,0.2676,0.0138,-0.2281,0.5905,0.5184,0.3136,0.2671,0.4655,0.3495,-0.1201,0.2866,0.4837,0.4587,-0.3092,0.1769,0.5698,0.4808,-0.4496,0.2810,0.4342,0.3452
91,3,0.2032,-0.0867,-0.2290,0.5830,0.4580,0.3261,0.2650,0.4113,0.3531,-0.0978,0.3664,0.4284,0.4903,-0.3019,0.2952,0.5322,0.5210,-0.4986,0.4385,0.4100,0.3929
92,3,0.2502,-0.1673,-0.2420,0.5806,0.3924,0.3461,0.2758,0.3651,0.3873,-0.0868,0.3930,0.4576,0.5524,-0.2867,0.3254,0.5580,0.5631,-0.5360,0.5042,0.3823,0.3939
94,4,0.1520,-0.1008,-0.1408,0.5661,0.0658,0.3576,0.2400,0.1810,0.3443,-0.0820,0.3419,0.3924,0.5224,-0.2784,0.3430,0.4944,0.5369,-0.5312,0.5144,0.3154,0.3663
96,3,0.2260,-0.0721,-0.3323,0.4304,-0.2832,0.4348,0.2430,0.2794,0.3636,-0.0015,0.3834,0.4620,0.5545,-0.2477,0.3952,0.4877,0.5262,-0.5342,0.5251,0.3182,0.4320
97,1,0.2487,-0.0940,-0.3044,0.4743,-0.2742,0.3925,0.2433,0.2564,0.3687,-0.0411,0.3715,0.4827,0.5896,-0.2969,0.3432,0.5594,0.5874,-0.5134,0.4687,0.4186,0.4674
98,0,0.3400,-0.0788,-0.2920,0.4785,-0.2419,0.3573,0.2374,0.2330,0.3599,-0.0717,0.3810,0.4359,0.5674,-0.2968,0.3489,0.5242,0.5716,-0.5078,0.4823,0.4068,0.4366
99,0,0.1909,0.0391,-0.2919,0.4595,-0.2869,0.3186,0.2624,0.2662,0.3766,-0.0534,0.3660,0.4844,0.6077,-0.2702,0.3038,0.5832,0.6115,-0.4555,0.3962,0.5347,0.5829
100,0,0.1963,0.1268,-0.2784,0.5074,-0.2202,0.2346,0.3195,0.3501,0.3994,-0.0696,0.3782,0.5721,0.6542,-0.2608,0.2538,0.6925,0.6884,-0.3826,0.2857,0.7082,0.7980
101,1,0.2282,0.0746,-0.2663,0.5631,-0.0237,0.1814,0.3213,0.3885,0.4020,-0.1065,0.4052,0.5634,0.6348,-0.2708,0.2951,0.6607,0.6731,-0.3801,0.3165,0.6859,0.7678
102,1,0.2546,-0.0684,-0.2810,0.5821,0.1150,0.2613,0.2781,0.3298,0.3868,-0.0997,0.3858,0.4619,0.5787,-0.2720,0.3074,0.5277,0.5811,-0.4116,0.3208,0.5173,0.5314
103,1,0.2282,-0.1805,-0.2682,0.6047,0.2485,0.3357,0.2847,0.3147,0.3545,-0.0780,0.4011,0.4138,0.5465,-0.2616,0.2967,0.4934,0.5435,-0.4117,0.2479,0.4014,0.3746
104,1,0.2391,-0.1524,-0.2406,0.6172,0.3450,0.2819,0.3151,0.3857,0.3343,-0.0852,0.4363,0.4768,0.5554,-0.2682,0.3083,0.5668,0.5855,-0.3989,0.2461,0.3890,0.3855
105,0,0.4595,-0.0951,-0.2466,0.6023,0.3858,0.2611,0.3030,0.4496,0.3396,-0.0804,0.4905,0.5011,0.5466,-0.2762,0.3598,0.5711,0.5845,-0.4030,0.2639,0.4033,0.3704
106,0,0.1604,-0.0360,-0.2778,0.6010,0.4114,0.3537,0.3003,0.4875,0.4669,-0.0411,0.4298,0.4818,0.5592,-0.2862,0.2797,0.5657,0.5398,-0.4535,0.1843,0.4311,0.2972
107,0,0.4914,0.0284,-0.2729,0.5920,0.3721,0.3929,0.3097,0.4867,0.5360,-0.0391,0.3946,0.4475,0.5640,-0.2786,0.2080,0.6037,0.5128,-0.4620,0.0951,0.4681,0.2509
108,0,0.5443,0.0135,-0.3059,0.6114,0.3945,0.3597,0.3030,0.4862,0.5001,-0.0598,0.4197,0.4462,0.5721,-0.2809,0.2036,0.6497,0.5248,-0.4648,0.0969,0.5016,0.2672
109,0,0.4441,0.0043,-0.3779,0.6440,0.3884,0.3871,0.2639,0.4845,0.5333,-0.0484,0.3366,0.4598,0.5791,-0.3022,0.1582,0.6394,0.5345,-0.5008,0.1172,0.5048,0.2872
110,0,0.5092,0.0272,-0.3411,0.6204,0.4112,0.3634,0.2254,0.4502,0.4827,-0.0968,0.3287,0.4598,0.5321,-0.3060,0.1764,0.6142,0.5148,-0.4686,0.1397,0.4923,0.2908
111,0,0.2809,0.0463,-0.2247,0.6211,0.6882,0.2594,0.1977,0.6558,0.4004,-0.1431,0.3782,0.5864,0.5030,-0.2758,0.1788,0.7420,0.5480,-0.3952,0.1831,0.5328,0.3970
112,1,0.3941,0.0080,-0.0250,0.6341,0.8212,0.0692,0.1774,1.0683,0.3461,-0.1761,0.2978,0.9021,0.5262,-0.2266,0.1720,0.9534,0.6332,-0.3097,0.2275,0.6558,0.5858
114,0,0.2570,0.0480,0.0869,0.6484,1.0137,0.2469,0.7193,1.8510,0.4130,-0.2087,0.7713,1.7408,1.2717,0.0608,0.8499,1.6359,0.6437,-0.1767,0.8556,1.3021,1.2841
115,3,0.2442,0.0153,0.0421,0.6975,1.1092,0.4320,0.9354,1.8813,0.1992,-0.2308,1.0439,1.7694,1.4322,0.1516,1.1111,1.6793,0.6541,-0.1904,1.1129,1.3343,1.2653
117,0,0.2298,-0.3177,0.1980,0.6239,0.5307,-0.0450,-0.0775,1.0914,0.3735,-0.2427,0.1438,1.0063,0.6452,-0.1959,0.2131,0.8188,0.6434,-0.2907,0.2793,0.5515,0.5791
118,1,0.4202,-0.3079,0.2477,0.6237,0.5981,-0.0247,-0.0254,1.3958,0.4182,-0.1462,0.2286,1.2406,0.7404,-0.1170,0.3022,1.0447,0.7501,-0.1934,0.3102,0.7065,0.7734
122,0,0.5080,-0.0683,0.4533,0.4651,1.0450,0.1489,1.1680,1.9697,1.2576,0.0026,1.2007,1.9697,1.1348,0.0687,1.2713,1.8141,1.0043,-0.0478,1.3976,1.3992,1.0692
123,0,0.2586,-0.0973,0.4102,0.5296,0.9359,0.1388,0.9173,1.9624,1.1213,-0.0133,1.0389,1.9264,1.1559,0.0555,1.1006,1.8209,1.0010,-0.0507,1.2150,1.4316,1.0417
127,0,0.4065,-0.0687,0.4637,0.4121,0.6860,0.1355,1.1346,1.9698,1.1195,-0.0166,1.2578,1.9624,0.7024,0.0236,1.4302,1.6164,0.7802,-0.0198,1.5580,1.3464,0.8795
128,0,0.2429,-0.0144,0.4181,0.4964,0.7548,0.1338,0.9515,1.9692,0.9972,-0.0014,1.1173,1.9596,0.7939,0.0122,1.2650,1.6671,0.7917,-0.0398,1.3792,1.4122,0.9182
132,0,0.4429,-0.0142,0.0247,0.0414,0.0228,0.0043,0.0368,0.1137,0.0284,-0.0058,0.0545,0.1015,0.0405,0.0058,0.0573,0.0831,0.0234,-0.0153,0.0611,0.0480,0.0526
133,0,0.5888,0.0000,0.0000,0.0000,0.0000,0.0000,0.0000,0.0000,0.0000,0.0000,0.0000,0.0000,0.0000,0.0000,0.0000,0.0000,0.0000,0.0000,0.0000,0.0000,0.0000
134,0,0.3914,-0.0350,0.0863,0.1136,0.1678,0.0347,0.1355,0.4242,0.1747,-0.0012,0.2055,0.4087,0.1777,0.0227,0.2177,0.3759,0.1882,-0.0123,0.2146,0.2781,0.1764
135,1,0.2160,-0.1924,0.2068,0.3886,0.2880,0.0807,0.1679,0.8322,0.3347,-0.1093,0.3428,0.7183,0.4073,-0.0640,0.3343,0.6136,0.3947,-0.1554,0.3359,0.4241,0.2995
138,0,0.6694,-0.0427,0.4704,0.4501,0.9486,0.1682,1.1382,1.9697,1.2725,0.0030,1.2385,1.9697,0.8930,0.0971,1.3367,1.8291,0.9182,-0.0389,1.4009,1.3920,0.9893
139,0,0.5049,-0.0024,0.4599,0.4748,1.1475,0.1828,1.1415,1.9697,1.2446,0.0115,1.2269,1.9694,0.8902,0.0988,1.3145,1.8340,0.9134,-0.0444,1.3779,1.3892,0.9961
140,0,0.2754,-0.1017,0.4212,0.5063,0.8871,0.1471,0.8197,1.9193,1.0760,-0.0052,0.9783,1.8532,0.9141,0.0652,1.0379,1.7062,0.9259,-0.0511,1.0985,1.2699,1.0105
141,1,0.3189,-0.2721,0.3168,0.5521,0.4630,0.1101,0.2379,1.2914,0.6048,-0.0667,0.4841,1.1489,0.7043,-0.0878,0.4414,1.0544,0.6969,-0.1712,0.4512,0.7633,0.6697
142,3,0.2148,-0.3082,0.2824,0.5456,0.2925,0.0450,0.0306,0.8845,0.3074,-0.1798,0.2344,0.7723,0.4835,-0.2261,0.1931,0.6545,0.4788,-0.3042,0.2750,0.4017,0.3427
144,0,0.3923,-0.0559,0.3540,0.3162,0.6076,0.1263,0.8444,1.5001,0.9549,0.0283,0.9179,1.5002,0.7356,0.0689,1.0183,1.3597,0.6677,-0.0274,1.1285,1.0368,0.7073
145,0,0.7655,-0.0447,0.3509,0.3400,0.6110,0.1263,0.8606,1.5001,0.9436,0.0294,0.9299,1.5001,0.7311,0.0674,1.0218,1.3568,0.6560,-0.0306,1.1374,1.0301,0.7124
146,0,0.5903,-0.0551,0.4686,0.4419,0.7947,0.1686,1.1059,1.9697,1.2411,0.0419,1.1995,1.9697,0.9722,0.0935,1.3147,1.7923,0.8747,-0.0381,1.4601,1.3740,0.9396
147,3,0.1968,-0.0601,0.4761,0.4326,0.7891,0.1591,0.9155,1.9689,1.1365,0.0254,1.0570,1.9610,0.9650,0.0851,1.1592,1.7866,0.8999,-0.0389,1.2906,1.3738,0.9361
148,1,0.1397,-0.0700,0.4749,0.4342,0.7866,0.1160,0.4146,1.5179,0.7452,-0.0916,0.6339,1.4009,0.7607,-0.0514,0.6495,1.2502,0.7222,-0.1469,0.7072,0.9218,0.6919
151,0,0.3759,-0.0012,0.2357,0.2636,0.5671,0.1009,0.6064,1.1446,0.7080,0.0192,0.7142,1.1446,0.4488,0.0104,0.7854,0.9784,0.4442,-0.0340,0.8965,0.7660,0.5348
152,0,0.2675,-0.0347,0.4044,0.4941,0.9375,0.1605,0.9378,1.9696,1.1353,0.0260,1.1506,1.9621,0.8130,0.0114,1.2701,1.6853,0.7904,-0.0660,1.4491,1.3430,0.9337
153,1,0.1900,-0.1743,0.3214,0.5632,0.7279,0.1130,0.4960,1.5808,0.7649,-0.0780,0.7384,1.4967,0.7629,-0.0678,0.7968,1.2622,0.7123,-0.1452,0.9370,0.9694,0.7049
155,4,0.2011,-0.1011,0.4182,0.4558,0.7782,0.0761,0.8511,1.7422,0.9494,-0.0755,0.9906,1.7086,0.7131,0.0474,1.2211,1.2807,1.0399,-0.1802,1.2955,0.9545,0.8536
156,0,0.5447,-0.0870,0.4282,0.4933,0.9193,0.1449,1.1493,1.9697,1.1575,0.0100,1.2742,1.9697,0.8009,0.1607,1.5721,1.4538,1.2659,-0.1575,1.5322,1.1739,1.1348
157,0,0.2952,-0.0860,0.4273,0.5265,0.8937,0.1480,1.0918,1.9698,1.1186,0.0098,1.2397,1.9675,0.8154,0.1567,1.5308,1.4913,1.2111,-0.1624,1.4955,1.1858,1.1388
158,0,0.2315,-0.1765,0.3469,0.5399,0.7451,0.1418,0.6664,1.6802,0.8071,-0.0111,0.8838,1.6044,0.7596,0.0401,1.0473,1.2823,0.9158,-0.0962,1.0319,0.9003,0.9520
159,3,0.1929,-0.2609,0.2723,0.5456,0.4598,0.0960,0.1768,1.0493,0.4168,-0.1446,0.3637,0.9580,0.5964,-0.1660,0.3626,0.7961,0.5402,-0.2076,0.4433,0.4456,0.5061
160,2,0.2545,-0.1740,0.3690,0.4491,0.5174,0.1020,0.4392,1.3223,0.7450,-0.1206,0.5666,1.2770,0.8219,-0.1157,0.5329,1.1272,0.7267,-0.2572,0.6391,0.7835,0.6521
161,2,0.2093,-0.0574,0.4713,0.3267,0.8116,0.1703,0.9005,1.9531,1.2992,0.0242,1.0267,1.9256,1.2098,0.0450,1.0454,1.7990,1.0300,-0.1135,1.1025,1.3599,1.1008
162,0,0.2206,-0.0517,0.4713,0.3638,0.8436,0.1778,0.9831,1.9697,1.3632,0.0160,1.1068,1.9628,1.2709,0.0585,1.1609,1.8821,1.0305,-0.1111,1.2198,1.4370,1.1223
163,0,0.4081,-0.1424,0.4201,0.4672,0.7410,0.1628,0.7859,1.9489,1.1252,-0.0155,1.0001,1.8727,1.2475,0.0449,1.0315,1.8043,1.0015,-0.1038,1.0803,1.3427,1.0658
164,0,0.4330,-0.2442,0.3450,0.5305,0.5426,0.1047,0.3144,1.5358,0.6719,-0.1030,0.5852,1.3655,0.9259,-0.0706,0.5958,1.2174,0.7955,-0.2067,0.6752,0.8152,0.7412
165,2,0.1965,-0.2154,0.3823,0.5093,0.4547,0.0265,0.1831,1.4187,0.5167,-0.1673,0.4398,1.2914,0.6987,-0.1308,0.4909,1.0354,0.6938,-0.2767,0.6614,0.5980,0.6217
166,4,0.1681,-0.1164,0.4548,0.4352,0.6629,0.0841,0.7013,1.8318,0.9576,-0.0898,0.9098,1.8055,0.8585,-0.0071,1.0114,1.5907,0.8406,-0.1499,1.1810,1.0687,0.9208
167,0,0.2129,-0.0794,0.4565,0.4175,0.7903,0.1601,1.0101,1.9697,1.2656,-0.0166,1.1880,1.9697,0.9578,0.0692,1.2860,1.8320,0.9093,-0.0840,1.3979,1.3431,1.0478
168,3,0.2249,-0.1637,0.4083,0.4844,0.6198,0.1463,0.6511,1.8890,1.0227,-0.0305,0.8961,1.8037,0.9947,0.0454,0.9624,1.6923,0.9227,-0.0834,1.0350,1.2359,0.9954
170,0,0.3229,-0.1936,0.3791,0.4841,0.4699,0.0641,0.4844,1.4613,0.7935,-0.1344,0.6657,1.3926,0.7633,-0.0849,0.7257,1.2458,0.7445,-0.1932,0.7691,0.8998,0.7166
171,0,0.3295,-0.1126,0.4602,0.4211,0.7816,0.1511,0.9782,1.9699,1.2332,-0.0246,1.1504,1.9604,0.9524,0.0577,1.2431,1.8325,0.9518,-0.0580,1.2699,1.4536,1.0802
172,0,0.1425,-0.2561,0.2898,0.5077,0.6280,0.1303,0.5570,1.6704,0.9270,-0.0863,0.7461,1.5677,0.9500,-0.0245,0.8083,1.4519,0.9129,-0.1382,0.8240,1.1264,0.9725
173,0,0.3108,-0.3766,0.1311,0.6033,0.4370,0.0736,0.0778,1.1380,0.4777,-0.1861,0.2858,0.9938,0.7809,-0.1658,0.3173,0.8734,0.7458,-0.2755,0.3570,0.5891,0.6616
174,4,0.2050,-0.2530,0.2809,0.5525,0.5668,0.0802,0.4224,1.4172,0.6869,-0.1338,0.5857,1.3556,0.8099,-0.1018,0.6565,1.2039,0.7941,-0.2169,0.7629,0.8364,0.7333
175,0,0.2408,-0.1246,0.4407,0.4690,0.7724,0.1479,0.9562,1.9496,1.1049,-0.0213,1.0603,1.9316,0.9876,0.0466,1.1700,1.7672,0.9683,-0.0761,1.2965,1.3404,1.0140
176,3,0.1439,-0.1457,0.4125,0.4911,0.7685,0.1658,0.9064,1.9597,1.0753,0.0050,1.0180,1.8958,1.0016,0.0786,1.1087,1.7513,0.9614,-0.0396,1.2067,1.3415,0.9805
177,3,0.1615,-0.2549,0.3201,0.5634,0.6014,0.0715,0.3545,1.6045,0.6730,-0.1008,0.5256,1.4389,0.8195,-0.0228,0.6272,1.2119,0.7780,-0.1260,0.6872,0.8838,0.7579
179,0,0.2338,-0.1485,0.4070,0.5183,0.7058,0.0402,0.5990,1.7515,0.7133,-0.1121,0.6610,1.6631,0.8512,-0.0388,0.7979,1.4288,0.8233,-0.1000,0.9812,0.9594,0.7843
180,0,0.3265,-0.0715,0.4439,0.4595,0.9462,0.1483,1.1546,1.9698,1.0376,0.0079,1.1369,1.9671,0.9854,0.0708,1.2583,1.7935,0.9785,-0.0537,1.4049,1.3565,0.9217
181,0,0.2409,-0.0550,0.4127,0.5082,0.6438,0.1830,0.9233,1.8978,0.9193,0.0314,0.9674,1.8605,0.9873,0.0916,1.0334,1.7356,0.9624,-0.0242,1.1530,1.3473,0.9401
182,0,0.4185,-0.1742,0.3973,0.7036,-0.0415,0.1587,0.4149,1.5245,0.5675,-0.0515,0.6251,1.3070,0.8416,-0.0124,0.6442,1.1563,0.7781,-0.1202,0.7463,0.8211,0.7341
183,0,0.1898,-0.2172,0.3027,0.5480,-0.2265,0.0670,0.0965,0.7600,0.2223,-0.1138,0.2981,0.5506,0.4531,-0.0930,0.3094,0.4175,0.3774,-0.1627,0.4013,0.2074,0.3168
184,0,0.2503,-0.0697,0.0906,0.1352,-0.0536,0.0129,0.0203,0.1485,0.0426,-0.0394,0.0578,0.1193,0.0957,-0.0285,0.0599,0.0928,0.0663,-0.0389,0.0997,0.0331,0.0599
185,0,0.6370,0.0000,0.0000,0.0000,0.0000,0.0000,0.0000,0.0000,0.0000,0.0000,0.0000,0.0000,0.0000,0.0000,0.0000,0.0000,0.0000,0.0000,0.0000,0.0000,0.0000
186,0,0.5289,0.0149,0.0733,0.1408,0.0828,0.0656,0.2833,0.3606,0.1442,0.0529,0.2711,0.3750,0.1578,0.0739,0.2770,0.3558,0.1635,0.0663,0.2756,0.3336,0.1541
190,0,0.5702,-0.0038,0.0350,0.0350,0.0756,0.0132,0.0815,0.1532,0.0925,0.0026,0.0934,0.1532,0.0672,0.0093,0.1050,0.1395,0.0568,-0.0014,0.1106,0.1047,0.0706
191,0,0.4072,-0.0606,0.2387,0.2878,0.5235,0.0996,0.4901,1.1335,0.5650,0.0154,0.6139,1.1224,0.5230,0.0601,0.6944,1.0237,0.4782,-0.0299,0.7288,0.7821,0.5054
192,0,0.2297,-0.1939,0.3294,0.5403,0.7276,0.1562,0.4599,1.5279,0.6946,-0.0545,0.6657,1.5006,0.8053,-0.0213,0.7592,1.3026,0.7449,-0.1435,0.8177,0.9337,0.6998
193,2,0.1791,-0.1689,0.3492,0.5400,0.6723,0.0832,0.4328,1.4174,0.5564,-0.1185,0.5485,1.4005,0.7448,-0.0892,0.5984,1.1788,0.7143,-0.1493,0.6909,0.8545,0.6871
194,2,0.2784,-0.0404,0.4429,0.4891,0.9078,0.0621,0.9701,1.8546,0.8535,-0.0704,1.0204,1.8540,0.8468,0.0013,1.0734,1.6680,0.8217,-0.0491,1.1705,1.3797,0.8708
195,0,0.3758,-0.0176,0.4402,0.4840,1.0084,0.1034,1.1401,1.9697,1.0351,-0.0360,1.2026,1.9697,0.9194,0.0328,1.2539,1.8229,0.8662,-0.0360,1.3226,1.5781,0.8946
196,0,0.1745,-0.0996,0.3981,0.5331,0.9186,0.1117,0.7780,1.9114,0.8731,-0.0430,0.9416,1.8566,0.9080,0.0247,0.9760,1.6917,0.8496,-0.0272,1.0311,1.4198,0.9202
197,4,0.1413,-0.1961,0.3072,0.5025,0.7171,0.0724,0.2754,1.4698,0.5233,-0.1195,0.4809,1.3416,0.6762,-0.0709,0.4748,1.1547,0.6436,-0.1112,0.5518,0.8457,0.6510
199,0,0.3402,0.0000,0.0000,0.0000,0.0000,0.0000,0.0000,0.0000,0.0000,0.0000,0.0000,0.0000,0.0000,0.0000,0.0000,0.0000,0.0000,0.0000,0.0000,0.0000,0.0000
200,2,0.3937,-0.0677,0.1256,0.1923,0.2964,0.0671,0.1438,0.6338,0.2172,-0.0150,0.2310,0.5557,0.3122,0.0070,0.2252,0.4997,0.2918,0.0001,0.2647,0.3207,0.3121
201,0,0.3711,-0.1852,0.2957,0.4611,0.6542,0.1385,0.2148,1.2625,0.4576,-0.0878,0.3741,1.0811,0.6271,-0.0522,0.3176,0.9665,0.6030,-0.0975,0.3318,0.6115,0.5715
202,0,0.2188,-0.1997,0.3146,0.5404,0.6460,0.0926,0.1836,1.1625,0.4239,-0.1925,0.2690,0.9781,0.5662,-0.1659,0.1847,0.8553,0.5536,-0.2255,0.2539,0.5445,0.4140
203,0,0.2520,-0.1468,0.3022,0.5499,0.6072,0.0509,0.2508,1.2358,0.4020,-0.1963,0.3312,1.0413,0.5561,-0.1643,0.2743,0.8857,0.5683,-0.1972,0.4052,0.5795,0.4810
204,0,0.2713,-0.1310,0.2903,0.5855,0.6536,0.0222,0.2510,1.4325,0.4400,-0.1622,0.4016,1.1980,0.6629,-0.1156,0.3545,1.0235,0.6860,-0.1435,0.3761,0.7263,0.7436
205,0,0.3638,-0.0934,0.0690,0.6539,0.7728,-0.0315,0.2523,1.4274,0.4929,-0.1943,0.3152,1.1430,0.7280,-0.1430,0.2952,0.9428,0.6967,-0.1877,0.2437,0.7048,0.7416
206,0,0.2244,0.1742,-0.1102,0.5976,0.5578,-0.0688,0.2942,1.2975,0.4874,-0.2041,0.3227,1.0552,0.6980,-0.1765,0.2358,0.8814,0.6785,-0.2353,0.1473,0.6113,0.6246
207,3,0.1751,0.2557,-0.1245,0.5804,0.6038,-0.1134,0.3636,1.3999,0.5949,-0.2114,0.3435,1.1660,0.7999,-0.1815,0.2123,0.9990,0.7183,-0.2500,0.1115,0.6335,0.6064
208,0,0.2587,0.2596,-0.1361,0.5910,0.6988,-0.1316,0.3606,1.5548,0.6870,-0.2130,0.3824,1.2759,0.8529,-0.1737,0.2154,1.0617,0.7536,-0.2545,0.0900,0.6320,0.6001
209,0,0.2438,0.5115,-0.0959,0.4691,0.0416,-0.1156,0.3270,1.5233,0.5667,-0.1829,0.5556,1.2436,0.6514,-0.1538,0.2481,1.0521,0.7492,-0.2429,0.0695,0.6172,0.6053
210,2,0.2033,0.6257,-0.0672,0.4189,-0.3459,-0.1097,0.3553,1.5414,0.5242,-0.1657,0.6477,1.1785,0.5454,-0.1405,0.2630,1.0496,0.7442,-0.2351,0.0611,0.6212,0.6222
212,0,0.1701,0.5053,-0.0933,0.4708,-0.0734,-0.1830,0.2063,1.7888,0.7070,-0.2316,0.6192,1.4223,0.3263,-0.1085,0.2497,1.0784,0.7514,-0.2351,0.0213,0.5397,0.5140
215,0,0.1438,0.2414,-0.1783,0.6097,0.5562,-0.0447,0.1234,0.4992,0.2364,-0.2937,0.2869,0.8825,0.6577,-0.2517,0.1310,0.7557,0.5662,-0.3460,0.0923,0.2406,0.1307
216,0,0.2321,0.3441,-0.1400,0.6485,1.0513,-0.1293,0.2100,0.8962,0.3024,-0.2844,0.4140,1.3485,0.9409,-0.2041,0.1850,1.1171,0.7561,-0.3253,0.1092,0.3439,0.2482
219,0,0.1641,0.4847,-0.0698,0.6383,1.0134,-0.0555,0.2924,0.8644,0.2858,-0.2959,0.2079,0.9099,0.6848,-0.2218,0.1942,1.2531,0.8116,-0.2943,0.0068,0.5379,0.4305
221,0,0.2470,0.4540,-0.0855,0.6814,1.1700,-0.0035,0.2647,0.7532,0.2754,-0.2820,0.1197,0.6903,0.6129,-0.2544,0.1576,0.7846,0.6766,-0.2850,0.0490,0.3589,0.3150
222,0,0.3280,0.4972,-0.0936,0.5811,1.1666,0.0250,0.2309,0.6083,0.2418,-0.2368,0.2809,0.3665,0.3201,-0.2546,0.0773,0.5759,0.4825,-0.2593,0.0375,0.4969,0.5424
223,0,0.3416,0.6678,-0.0262,0.5524,1.1712,-0.0114,0.3092,0.6856,0.2721,-0.2193,0.2714,0.7006,0.4467,-0.2443,-0.0772,1.0148,0.7476,-0.1333,0.0241,0.9114,1.1669
224,0,0.1494,0.7288,0.0016,0.5874,1.1745,-0.0192,0.3293,0.5792,0.2631,-0.2304,0.2191,0.7627,0.4751,-0.2498,-0.1265,1.0689,0.7982,-0.0551,0.0959,0.8786,1.3193
225,0,0.1982,0.5565,-0.0481,0.6348,1.1744,0.0128,0.2249,0.4426,0.2365,-0.2781,0.1905,0.5136,0.3831,-0.2655,-0.0353,0.6532,0.5479,-0.1234,0.1327,0.4938,0.7982
226,0,0.2558,0.3119,-0.1060,0.6467,1.1111,-0.0112,0.1690,0.5741,0.2305,-0.3125,0.2260,0.3776,0.3215,-0.2705,0.1190,0.3321,0.3265,-0.2645,0.1481,0.1610,0.1478
227,0,0.2814,0.2091,-0.1157,0.6368,0.9892,-0.1031,0.2752,1.1320,0.3913,-0.3087,0.2456,0.7520,0.4697,-0.2431,0.1871,0.5964,0.4386,-0.3067,0.2054,0.2053,0.1165
229,2,0.2239,0.1491,-0.1729,0.6499,0.9238,-0.0395,0.3813,0.8632,0.4280,-0.2828,0.1992,0.7750,0.5223,-0.2463,0.1504,0.6276,0.4589,-0.3310,0.1751,0.2046,0.1186
230,0,0.2090,0.2345,-0.1489,0.6109,0.8051,0.0043,0.2476,0.5221,0.2409,-0.2952,0.2266,0.7202,0.5299,-0.2644,0.1198,0.6156,0.4695,-0.3508,0.1314,0.1914,0.0841
231,2,0.1442,0.3440,-0.1099,0.6378,0.9979,-0.0936,0.2647,0.9937,0.3090,-0.2809,0.3114,1.2474,0.8184,-0.2123,0.1677,0.9894,0.6716,-0.3144,0.1937,0.2616,0.1941
233,0,0.1532,0.3598,-0.1337,0.6494,1.1507,0.0211,0.2750,0.7370,0.2576,-0.2539,0.3040,0.6599,0.5184,-0.2251,0.2001,0.8153,0.5909,-0.3294,0.1001,0.3172,0.2201
234,0,0.1717,0.4867,-0.0718,0.6593,1.1549,-0.0529,0.3709,0.9835,0.3207,-0.3080,0.1337,1.1040,0.8093,-0.2280,0.1689,1.3134,0.9519,-0.2679,0.0565,0.6073,0.5448
237,2,0.1733,0.3675,-0.1312,0.6938,1.1288,0.0610,0.3139,0.5799,0.2471,-0.2602,0.3069,0.3115,0.3242,-0.2667,0.1645,0.5836,0.5122,-0.2900,0.0949,0.3485,0.3329
238,0,0.4988,0.5764,-0.0498,0.5653,1.1288,0.0766,0.3216,0.5503,0.2278,-0.2239,0.3521,0.3434,0.3016,-0.2555,-0.0391,0.8178,0.6254,-0.1689,0.0112,0.8148,1.0090
239,0,0.2734,0.7423,0.0070,0.5696,1.1745,0.0819,0.3593,0.4750,0.2104,-0.2200,0.2934,0.5169,0.3526,-0.2526,-0.1648,1.0515,0.7772,-0.0276,0.0667,0.8887,1.4044
241,0,0.3229,0.4352,-0.0798,0.5837,1.1076,0.0459,0.2472,0.4999,0.2200,-0.2852,0.3634,0.2337,0.2519,-0.2490,0.1358,0.6259,0.4361,-0.2663,0.0511,0.1642,0.1608
242,0,0.1848,0.4814,-0.0744,0.6174,1.1081,0.0214,0.3686,0.6582,0.2687,-0.3223,0.2970,0.7071,0.5146,-0.2512,0.1817,1.2809,0.7698,-0.3022,0.1175,0.2719,0.1895
244,0,0.2469,0.3195,-0.1106,0.7046,1.1716,0.0120,0.2504,0.4147,0.2338,-0.3352,0.2113,0.4569,0.4256,-0.2953,0.1984,0.5788,0.5391,-0.2623,0.1159,0.0912,0.0287
245,0,0.1926,0.2412,-0.1368,0.6238,1.1243,-0.0427,0.1360,0.5534,0.2425,-0.2905,0.3743,0.5773,0.4804,-0.2383,0.1654,0.5100,0.4145,-0.2969,0.0512,0.1342,0.0158
247,0,0.1460,0.1898,-0.1574,0.5801,0.9887,-0.0322,0.0681,0.4622,0.2139,-0.2797,0.3543,0.2763,0.2883,-0.2218,0.1819,0.2615,0.2633,-0.3197,0.0408,0.1416,-0.0085
251,2,0.2203,0.0991,-0.1942,0.6437,0.8430,-0.0861,0.2816,0.6816,0.3046,-0.2696,0.4150,0.3697,0.3387,-0.2519,0.2256,0.3662,0.3418,-0.3583,0.1165,0.1710,0.0190
252,2,0.2677,0.2395,-0.1323,0.6186,0.8890,-0.1105,0.2114,0.8307,0.3071,-0.2916,0.4114,0.8273,0.6359,-0.2454,0.1975,0.7149,0.5162,-0.3518,0.1130,0.2464,0.0784
253,2,0.1586,0.2964,-0.1668,0.6993,1.1335,-0.1315,0.2988,1.1503,0.3914,-0.3372,0.4385,1.3542,0.9771,-0.2336,0.2758,1.0747,0.7152,-0.3456,0.1880,0.2892,0.1818
254,0,0.2421,0.2481,-0.2101,0.7257,1.1630,-0.0533,0.3230,0.9992,0.3566,-0.3637,0.4167,1.0612,0.8159,-0.2556,0.3267,0.8432,0.6037,-0.3705,0.1570,0.2247,0.1075
255,0,0.2315,0.3073,-0.1822,0.7006,1.1500,-0.0014,0.3384,0.9580,0.3659,-0.3336,0.1907,1.0089,0.7741,-0.2715,0.2455,0.9900,0.7066,-0.3421,0.0780,0.3817,0.2728
256,4,0.2712,0.4272,-0.1488,0.6911,1.1616,-0.0389,0.4175,1.1318,0.4007,-0.3222,0.1130,1.2426,0.8599,-0.2964,0.3056,1.2997,0.9698,-0.2656,0.0862,0.4934,0.3943
259,4,0.1814,0.6444,-0.0108,0.5762,1.1028,-0.0182,0.3850,0.5970,0.2497,-0.1669,0.4646,0.5154,0.2559,-0.2422,0.0328,0.9929,0.7117,-0.1512,0.0139,0.8876,1.1879
260,0,0.2270,0.6356,0.0401,0.6603,1.1745,0.0266,0.2615,0.3793,0.2078,-0.1908,0.3449,0.3226,0.1949,-0.2471,0.0016,0.5840,0.4940,-0.1116,0.0726,0.4694,0.7657
261,0,0.3408,0.4714,-0.0025,0.6978,1.1745,0.0773,0.1992,0.4811,0.2050,-0.2645,0.3675,0.2077,0.2039,-0.2324,0.1584,0.6613,0.4503,-0.2482,0.0519,0.1305,0.0855
262,0,0.2321,0.4638,-0.0286,0.6908,1.1745,0.0953,0.3000,0.5817,0.2262,-0.3113,0.3765,0.3736,0.2874,-0.2475,0.2282,1.3325,0.9203,-0.3065,0.1204,0.1144,-0.0130
264,2,0.2277,0.2747,-0.0995,0.6514,1.1409,-0.0183,0.1701,0.6289,0.2396,-0.2767,0.3584,0.6566,0.5129,-0.2444,0.2105,0.6247,0.5168,-0.3030,0.0720,0.1058,0.0024
266,2,0.1738,0.2515,-0.1310,0.6361,1.1293,-0.0271,0.1289,0.6089,0.2790,-0.2860,0.3547,0.7068,0.5859,-0.2033,0.2294,0.5192,0.4307,-0.3199,0.0858,0.1382,0.0406
268,3,0.1726,0.2114,-0.1230,0.6168,0.9504,-0.1976,0.4061,1.4005,0.5589,-0.3046,0.1854,0.9774,0.6343,-0.2393,0.1556,0.7750,0.5024,-0.3205,0.2067,0.1751,0.1057
269,2,0.2017,0.2562,-0.1164,0.5684,0.7904,-0.0424,0.3877,0.8224,0.3904,-0.3047,0.1466,0.7366,0.5251,-0.2580,0.1023,0.5950,0.4166,-0.3353,0.1789,0.1261,0.0970
270,0,0.1569,0.2904,-0.0919,0.5499,0.7136,0.0521,0.2795,0.4052,0.2269,-0.3027,0.2606,0.5329,0.4369,-0.2727,0.1292,0.4998,0.3940,-0.3551,0.1161,0.2035,0.0568
271,2,0.2351,0.3325,-0.0951,0.5916,0.9208,-0.0630,0.3075,0.6790,0.2774,-0.3080,0.3243,1.0881,0.8190,-0.2471,0.1590,0.9140,0.6285,-0.3449,0.1528,0.2807,0.1399
272,0,0.2442,0.3434,-0.1188,0.5841,0.9982,0.0031,0.2235,0.4656,0.2269,-0.3016,0.2783,0.8312,0.7011,-0.2496,0.1388,0.7214,0.5357,-0.3621,0.1032,0.2166,0.0875
273,0,0.2631,0.3743,-0.1170,0.5972,0.9941,0.0512,0.2345,0.3351,0.2065,-0.3251,0.1886,0.5408,0.4590,-0.2525,0.1283,0.8694,0.5725,-0.3473,0.0492,0.3472,0.2259
276,0,0.2301,0.5081,-0.0869,0.5912,1.1285,0.0608,0.2527,0.3078,0.2065,-0.2838,0.1957,0.3482,0.3415,-0.2722,0.0342,0.7984,0.6320,-0.2492,0.2340,0.4990,0.6596
278,0,0.3458,0.4717,-0.1013,0.5704,1.1139,0.0562,0.2253,0.3388,0.1777,-0.3221,0.1976,0.3347,0.3175,-0.2532,0.0882,0.6078,0.4680,-0.1982,0.1460,0.2480,0.3736
279,0,0.3214,0.4327,-0.1282,0.5909,1.1046,0.0249,0.3004,0.4849,0.2297,-0.3655,0.1291,0.6314,0.4813,-0.2801,0.1992,1.0862,0.6440,-0.3108,0.1358,0.1672,0.0856
282,0,0.2409,0.1925,-0.1772,0.7046,1.1238,-0.0683,0.1367,0.5970,0.2373,-0.2894,0.3866,0.8435,0.6527,-0.2474,0.2366,0.7029,0.5267,-0.3231,0.1236,0.1881,0.0753
283,0,0.2189,0.2419,-0.1736,0.7643,1.1498,-0.0777,0.2558,0.9628,0.2936,-0.2942,0.4454,1.3892,0.9886,-0.1939,0.2887,1.0896,0.7546,-0.3244,0.2341,0.2756,0.2193
285,0,0.2566,0.1544,-0.1617,0.7250,1.1186,-0.0710,0.1412,0.6697,0.2341,-0.3062,0.3840,0.2519,0.3195,-0.2548,0.2549,0.1930,0.2567,-0.3392,0.0951,0.1000,-0.0427
286,0,0.1413,0.2003,-0.1278,0.6351,1.0455,-0.1424,0.3178,1.1593,0.4054,-0.2852,0.4126,0.5433,0.3754,-0.2360,0.2758,0.4464,0.3688,-0.3254,0.1293,0.1508,0.0014
289,2,0.2924,0.2326,-0.1510,0.5886,0.7760,-0.0503,0.1646,0.4752,0.2055,-0.3107,0.2929,0.5777,0.4714,-0.2687,0.1877,0.4651,0.3963,-0.3578,0.1131,0.1578,0.0183
290,0,0.2554,0.2594,-0.1809,0.6882,0.9310,-0.1170,0.2567,0.9191,0.3232,-0.3136,0.3149,1.2241,0.9262,-0.2488,0.1734,0.9858,0.6830,-0.3546,0.1773,0.2576,0.1496
291,0,0.3316,0.1593,-0.2298,0.8420,1.1643,-0.0880,0.2468,0.9539,0.3720,-0.2836,0.3719,1.2844,1.0851,-0.2414,0.1816,1.0664,0.7681,-0.3735,0.1925,0.2792,0.1936
292,0,0.1595,0.1583,-0.2175,0.8295,1.1745,-0.0209,0.2508,0.7281,0.3222,-0.2673,0.2888,0.9001,0.7706,-0.2525,0.2102,0.8264,0.6262,-0.3806,0.1811,0.2192,0.1357
293,0,0.2357,0.3135,-0.1573,0.7189,1.1745,-0.0194,0.3165,0.7212,0.3116,-0.3011,0.0940,1.0026,0.7928,-0.2579,0.1989,1.0434,0.7270,-0.3552,0.1781,0.3335,0.2628
294,4,0.1442,0.4508,-0.1183,0.7012,1.1745,-0.0612,0.3837,0.8842,0.3364,-0.3412,0.0176,1.3637,1.0908,-0.2971,0.2394,1.3724,0.9751,-0.3291,0.3215,0.3960,0.3810
296,0,0.2533,0.3997,-0.1312,0.6429,1.0741,0.0150,0.2672,0.4789,0.2667,-0.2858,0.2674,0.3994,0.3796,-0.2898,0.1388,0.6848,0.5458,-0.3248,0.1643,0.5813,0.6013
297,2,0.2363,0.6123,-0.0558,0.6075,1.1365,0.0202,0.3408,0.4456,0.2813,-0.2632,0.2828,0.5890,0.4338,-0.2742,-0.0623,1.0601,0.7768,-0.2112,0.1034,0.9785,1.2436
298,2,0.2623,0.5367,-0.0643,0.5891,1.1464,0.0470,0.2391,0.3182,0.2183,-0.2809,0.2389,0.4090,0.3484,-0.2725,0.0139,0.6602,0.5418,-0.2349,0.1289,0.4846,0.6558
299,0,0.3249,0.2762,-0.1471,0.6169,1.0852,0.0087,0.1838,0.5122,0.2246,-0.2981,0.2200,0.6256,0.4913,-0.2628,0.1445,0.6624,0.4969,-0.3284,0.1414,0.1537,0.0707
300,0,0.2612,0.2022,-0.1903,0.6676,1.0976,-0.0724,0.2399,0.8172,0.2904,-0.2930,0.2715,1.2425,0.8733,-0.2479,0.1279,1.1129,0.7527,-0.3552,0.1772,0.2791,0.1681
305,0,0.1736,0.0955,-0.1940,0.6857,1.0280,-0.0105,0.2467,0.5822,0.3167,-0.2903,0.2691,0.6534,0.5278,-0.2644,0.2046,0.4773,0.4104,-0.3706,0.1367,0.1836,0.0327
306,0,0.1905,0.2216,-0.1622,0.6581,1.0456,-0.0877,0.1830,0.6453,0.2679,-0.3036,0.3497,1.0028,0.7571,-0.2520,0.2060,0.7681,0.5810,-0.3635,0.1269,0.2337,0.0891
309,0,0.1788,0.1963,-0.1786,0.7198,1.1745,-0.0956,0.1409,0.5807,0.2538,-0.3197,0.3329,0.6847,0.5669,-0.2686,0.1786,0.5592,0.4345,-0.3577,0.1653,0.1934,0.0953
319,2,0.2201,0.1803,-0.1557,0.6729,0.9437,-0.1117,0.2169,0.6158,0.2640,-0.3165,0.3253,1.0032,0.7817,-0.2488,0.1872,0.7767,0.5820,-0.3527,0.1656,0.2415,0.1307
320,4,0.3231,0.2844,-0.1462,0.7159,1.1454,-0.1529,0.2476,0.8297,0.2782,-0.3210,0.4554,1.3941,1.0938,-0.2015,0.2559,1.0708,0.7393,-0.3333,0.2009,0.2946,0.2095
322,0,0.1861,0.1453,-0.2163,0.7410,1.1745,-0.0072,0.0464,0.3302,0.1994,-0.2719,0.3628,0.6131,0.5532,-0.2382,0.1947,0.4570,0.3932,-0.3503,0.0812,0.1539,0.0246
323,4,0.1558,0.2050,-0.2231,0.7077,1.1745,-0.1283,0.1617,0.6484,0.2508,-0.2816,0.4881,1.1190,0.8547,-0.1957,0.2561,0.8345,0.6456,-0.3555,0.1259,0.2178,0.1109
325,0,0.2161,0.1988,-0.1996,0.6404,1.1090,-0.0839,0.0387,0.4969,0.2389,-0.3141,0.2802,0.7271,0.5749,-0.2602,0.1383,0.5302,0.4062,-0.3462,0.0571,0.1622,0.0122
327,0,0.2868,0.2101,-0.1820,0.6527,1.1312,-0.0581,0.0536,0.4235,0.2196,-0.2735,0.3324,0.6539,0.5573,-0.2417,0.1605,0.4905,0.3744,-0.3458,0.0491,0.1562,0.0017
328,0,0.1669,0.2286,-0.1727,0.6444,1.1200,-0.1413,0.1236,0.7972,0.2668,-0.2903,0.4203,1.1769,0.8577,-0.2191,0.2031,0.9371,0.6390,-0.3440,0.1057,0.2771,0.1105
329,2,0.1637,0.2455,-0.1566,0.6155,1.1159,-0.1075,0.0600,0.5765,0.2571,-0.3051,0.3516,0.7562,0.6466,-0.2263,0.1647,0.5864,0.4561,-0.3366,0.0746,0.2174,0.0592
330,0,0.2869,0.2029,-0.1310,0.5875,0.9991,-0.0843,0.0428,0.6092,0.2671,-0.2959,0.2636,0.3300,0.3066,-0.2458,0.1580,0.2560,0.2457,-0.3307,0.0496,0.1892,-0.0234
332,0,0.2469,0.2987,0.1824,0.5344,0.7325,0.0567,-0.0420,1.0837,0.2543,0.0065,0.0835,1.0765,0.4208,0.0682,0.1712,0.8467,0.7009,0.0176,-0.0406,0.9483,0.8607
333,3,0.1797,0.1012,0.0646,0.6255,0.7192,0.2028,-0.0618,0.9218,0.3183,0.0660,0.0097,1.0046,0.4687,0.0508,0.1123,0.8418,0.6076,-0.1431,-0.0015,0.9011,0.6875
334,3,0.1550,-0.0472,-0.1152,0.6806,0.8547,0.3527,-0.0625,0.5995,0.4382,0.0881,-0.1886,0.8810,0.5564,-0.0097,-0.1193,0.7610,0.6239,-0.3752,-0.0580,0.7872,0.6189
335,0,0.1556,0.0059,-0.1040,0.6981,0.9933,0.2808,0.0988,0.7356,0.4138,0.0683,-0.0255,0.9404,0.6134,-0.0287,0.0771,0.8156,0.6815,-0.3778,0.0706,0.8348,0.6721
339,0,0.2296,0.0622,-0.0475,0.6765,0.8181,0.2014,0.1631,0.8700,0.4247,0.0616,0.1805,0.9081,0.5972,0.0266,0.2740,0.7584,0.6581,-0.2194,0.0420,0.8636,0.7363
342,0,0.1851,0.0116,-0.0257,0.7154,0.8947,0.2177,0.0212,1.1853,0.6101,0.0720,0.0781,1.2059,0.8131,0.0991,0.2652,0.9540,0.7935,-0.1231,0.1076,0.9212,0.9387
347,1,0.2183,0.0401,-0.1518,0.6363,0.7416,0.2506,-0.0881,0.7468,0.5987,0.0046,-0.1933,0.8761,0.6075,-0.0735,-0.0053,0.7022,0.6823,-0.4136,0.0433,0.7775,0.6588
348,1,0.2090,0.0669,-0.0506,0.6768,0.8627,0.1467,-0.0984,0.9489,0.5518,-0.0154,-0.0724,0.9746,0.6197,-0.0095,0.1864,0.7673,0.7058,-0.2276,0.0629,0.8295,0.8051
351,2,0.2185,0.0148,-0.0427,0.6781,0.8508,0.1676,0.1381,0.7757,0.3409,-0.0053,0.1490,0.8571,0.5681,-0.0372,0.1544,0.6965,0.6635,-0.2405,-0.0622,0.8069,0.7888
353,1,0.2123,-0.0098,-0.1305,0.6324,0.6844,0.2275,-0.0553,0.7599,0.3831,0.0462,0.0116,0.8017,0.5146,0.0051,0.0175,0.6492,0.5972,-0.3035,0.0269,0.6880,0.6821
354,1,0.4042,-0.0356,-0.1846,0.6251,0.5593,0.1788,-0.0922,0.5819,0.3723,-0.0290,-0.0174,0.6520,0.4738,-0.0651,0.0745,0.5100,0.5646,-0.4177,0.2170,0.6210,0.5547
355,1,0.2305,0.0037,-0.0930,0.6727,0.7506,0.0829,-0.0839,0.7657,0.3772,-0.0589,0.0547,0.8253,0.5298,-0.0318,0.1277,0.6290,0.5899,-0.2819,0.0523,0.7375,0.6401
356,3,0.2170,0.0744,-0.0230,0.6418,0.7314,0.1342,-0.0491,0.9219,0.3768,0.0061,0.0998,0.9987,0.5710,0.0281,0.1585,0.8026,0.6160,-0.1476,-0.1076,0.8751,0.7767
357,3,0.1562,0.1024,-0.0756,0.5943,0.6000,0.2536,0.0627,0.6255,0.3592,0.0769,0.0471,0.8050,0.4767,0.0276,0.0498,0.7067,0.5165,-0.1181,-0.3143,0.7803,0.5305
358,0,0.2278,0.1347,-0.0719,0.6108,0.6228,0.1812,0.1635,0.4584,0.3439,0.0127,0.0766,0.5983,0.3809,-0.0392,0.0264,0.5633,0.3987,-0.0995,-0.4371,0.6753,0.2428
362,0,0.3074,0.1324,-0.0834,0.6877,1.0298,0.2322,0.0326,0.6822,0.4220,0.0524,-0.0197,0.9039,0.5783,-0.0055,0.0806,0.7681,0.6265,-0.3020,-0.0007,0.7914,0.5939
363,0,0.1771,0.1268,0.0149,0.7112,1.0462,0.1484,0.0663,1.0027,0.3654,0.0395,0.1490,1.0672,0.6006,0.0527,0.3046,0.8787,0.6535,-0.1362,0.0964,0.8695,0.7513
366,0,0.2407,0.0933,-0.1925,0.6106,0.5520,0.2004,0.1603,0.3959,0.4120,0.0181,0.0631,0.4917,0.4634,-0.0536,0.0923,0.4317,0.5193,-0.3749,0.0461,0.5909,0.4226
368,3,0.1571,0.0363,-0.1388,0.6578,0.7873,0.2321,0.0908,0.6822,0.4369,0.0789,0.0547,0.7156,0.5238,0.0153,0.0867,0.6041,0.6066,-0.3119,-0.0408,0.7197,0.6320
369,1,0.2827,-0.0140,-0.2160,0.6537,0.7466,0.2456,0.0341,0.4895,0.4801,0.0614,-0.0725,0.5753,0.4634,-0.0341,-0.0099,0.4687,0.5487,-0.4090,-0.0253,0.6407,0.5109
370,1,0.3163,0.0080,-0.1735,0.6827,0.8413,0.1722,0.1849,0.6321,0.4680,0.0246,0.1238,0.6509,0.5329,-0.0267,0.2098,0.5281,0.6053,-0.3051,-0.0360,0.7029,0.5877
371,1,0.1593,-0.0057,-0.1565,0.6750,0.8394,0.1954,0.2913,0.3762,0.4508,0.0318,0.1168,0.5350,0.4690,-0.0361,0.0564,0.5116,0.5349,-0.3123,-0.2180,0.6157,0.4512
374,1,0.2906,-0.1147,-0.0743,0.6926,0.7235,0.1746,0.1077,0.6980,0.4545,0.0372,0.0284,0.8052,0.6157,0.0012,0.1688,0.5749,0.6654,-0.2094,-0.0480,0.6431,0.6254
375,1,0.1593,-0.0785,-0.1445,0.6387,0.5836,0.2723,0.0811,0.4693,0.3891,0.0895,-0.0092,0.6466,0.5157,-0.0182,0.0857,0.4980,0.5934,-0.3077,0.0043,0.5559,0.5023
377,1,0.4171,-0.0907,-0.1460,0.6642,0.8694,0.2123,0.0006,0.6323,0.4334,-0.0122,0.0513,0.7872,0.6038,-0.1315,0.2589,0.6018,0.6804,-0.4609,0.4350,0.6246,0.5883
378,1,0.4745,-0.1323,-0.0753,0.6987,0.8808,0.1511,-0.0393,0.7809,0.3871,-0.0242,0.0716,0.8606,0.5620,-0.0537,0.2533,0.6747,0.6686,-0.3361,0.2663,0.7216,0.6504
379,1,0.4394,-0.1444,-0.1227,0.6957,0.8220,0.2280,-0.0910,0.7378,0.3645,0.0262,0.0066,0.8233,0.5013,-0.0642,0.1559,0.6044,0.6055,-0.3912,0.2222,0.6626,0.5897
380,1,0.4915,-0.1521,-0.2096,0.8171,0.9644,0.2856,-0.0202,0.6826,0.4067,0.0458,0.0239,0.7936,0.5407,-0.1376,0.1478,0.5081,0.5859,-0.5005,0.3747,0.5296,0.5152
381,1,0.7822,-0.1959,-0.1821,0.9034,1.1745,0.2257,0.0398,0.7534,0.4203,-0.0037,0.1049,0.8465,0.5934,-0.1448,0.2515,0.5363,0.6172,-0.4645,0.4294,0.5322,0.5378
382,1,0.4723,-0.1882,-0.1014,0.8100,1.1129,0.1890,-0.0307,0.7497,0.3511,-0.0216,0.0192,0.8516,0.5146,-0.0879,0.1501,0.6146,0.5896,-0.3740,0.1925,0.6651,0.5632
383,3,0.3990,-0.0680,-0.1160,0.6487,0.6813,0.2702,0.0513,0.6643,0.3572,0.0593,-0.0699,0.8409,0.5062,-0.0163,-0.0143,0.7003,0.5810,-0.3190,-0.0720,0.7868,0.6092
384,3,0.1893,0.0616,-0.1350,0.5828,0.5043,0.2674,0.2525,0.6341,0.3522,0.0811,-0.0652,0.8669,0.5555,0.0229,-0.0822,0.7675,0.5879,-0.2977,-0.1976,0.8093,0.6178
385,0,0.1884,0.1185,-0.1040,0.6197,0.7224,0.1690,0.2950,0.7112,0.3101,0.0107,0.0099,0.8894,0.5389,-0.0108,-0.0251,0.7761,0.5648,-0.2617,-0.2579,0.8212,0.5985
386,4,0.1477,0.0641,-0.1395,0.6098,0.5686,0.2293,0.1786,0.4843,0.3197,0.0475,-0.0145,0.7209,0.4397,-0.0219,-0.0428,0.6327,0.5031,-0.2743,-0.2474,0.7746,0.5164
392,0,0.2275,0.0893,-0.0216,0.7210,0.8008,0.1983,-0.1247,0.9801,0.6245,0.0572,-0.0558,1.0317,0.6550,0.0551,0.0686,0.7449,0.6045,-0.2629,-0.1020,0.7758,0.6740
394,3,0.3272,0.0970,-0.1105,0.6459,0.7945,0.2602,0.0360,0.7226,0.5576,0.1123,-0.0424,0.8553,0.6067,0.0253,0.0278,0.6914,0.6237,-0.2976,-0.1593,0.7423,0.6232
395,0,0.1795,0.0794,-0.1060,0.6630,0.8122,0.2823,0.0702,0.7988,0.5283,0.1189,0.0398,0.9464,0.6552,0.0270,0.1386,0.7691,0.6661,-0.2632,-0.1658,0.8002,0.6780
397,3,0.1513,0.1919,-0.1346,0.5780,0.5484,0.3391,0.3298,0.4438,0.3683,0.1213,-0.1816,0.7168,0.4374,-0.0219,-0.1500,0.5224,0.4531,-0.3144,-0.1837,0.5047,0.2460
398,0,0.2145,0.2061,-0.0967,0.5928,0.6172,0.2523,0.3889,0.5838,0.3651,0.0559,-0.0539,0.8234,0.5063,-0.0684,0.0162,0.5153,0.4352,-0.3252,-0.1247,0.4734,0.1750
399,0,0.2284,0.1709,-0.1096,0.6056,0.6842,0.2381,0.4059,0.5208,0.3721,0.0420,0.0289,0.7581,0.4837,-0.0544,0.0647,0.4924,0.4295,-0.2851,-0.1916,0.4912,0.1767
400,3,0.2146,0.1161,-0.1694,0.5888,0.5690,0.3146,0.3409,0.3391,0.3769,0.0816,-0.0032,0.6341,0.4574,-0.0235,-0.0180,0.4544,0.4500,-0.2974,-0.1914,0.4855,0.2160
401,3,0.2560,0.0796,-0.1828,0.6021,0.5580,0.3329,0.3092,0.3114,0.3258,0.1166,0.0066,0.6020,0.4698,-0.0024,-0.0476,0.4986,0.5087,-0.2413,-0.3153,0.5817,0.3582
402,1,0.1736,0.0900,-0.1660,0.6288,0.6734,0.3000,0.3283,0.3697,0.3032,0.1154,0.0271,0.5939,0.4618,0.0040,-0.0426,0.5026,0.5045,-0.1660,-0.4084,0.5717,0.3124
404,3,0.2238,0.1394,-0.1663,0.5686,0.4478,0.3177,0.0802,0.2897,0.3579,0.1103,-0.1420,0.4985,0.3524,-0.0019,-0.0922,0.3946,0.4299,-0.3665,0.0245,0.4488,0.2717
405,1,0.2026,0.1755,-0.0868,0.5699,0.5047,0.1860,0.0935,0.5676,0.3758,-0.0057,-0.0555,0.6865,0.4557,-0.0832,0.1440,0.5156,0.5450,-0.3542,0.1927,0.5976,0.4445
406,0,0.2622,0.2395,-0.0431,0.5513,0.5001,0.1103,0.1099,0.6241,0.3597,-0.0447,0.0032,0.7026,0.4737,-0.0736,0.1927,0.5499,0.5672,-0.2707,0.0821,0.6997,0.5322
409,0,0.3290,0.2411,-0.1002,0.5726,0.6403,0.1797,0.1403,0.5816,0.5383,0.0391,-0.1683,0.7628,0.5459,0.0104,-0.1753,0.5515,0.5169,-0.2781,-0.2111,0.6104,0.4413
411,3,0.1586,0.0833,-0.0812,0.5501,0.3177,0.2836,0.2240,0.2946,0.3770,0.0906,-0.1176,0.6692,0.4772,0.0058,-0.1319,0.5673,0.5362,-0.2605,-0.3176,0.6934,0.5297
412,0,0.2684,0.0739,0.0017,0.5895,0.4403,0.2160,0.3203,0.5476,0.3467,0.0530,-0.0631,0.8366,0.5306,0.0432,-0.1113,0.7163,0.5631,-0.1583,-0.4615,0.8516,0.7302
413,3,0.2705,0.1569,0.0430,0.6167,0.6611,0.1277,0.2762,0.8013,0.3566,-0.0165,0.0478,0.9050,0.5520,0.0145,0.0320,0.7549,0.5757,-0.1254,-0.4495,0.9125,0.8067
414,3,0.1881,0.1109,-0.0433,0.5958,0.5596,0.2151,0.2230,0.5458,0.3938,0.0182,0.0099,0.7630,0.5165,-0.0376,0.0152,0.6403,0.5728,-0.2797,-0.2647,0.7716,0.6338
416,0,0.3124,0.0925,-0.0425,0.7433,1.0009,0.2257,0.1907,0.7810,0.4569,0.0516,0.0088,0.9188,0.6198,-0.0353,0.0643,0.6896,0.6174,-0.3379,-0.0884,0.7390,0.6140
417,3,0.1658,0.1128,-0.0200,0.6789,0.8111,0.1874,0.1582,0.6708,0.3841,0.0051,0.0306,0.8202,0.5265,-0.0487,0.0558,0.6417,0.5707,-0.3122,-0.1573,0.7427,0.5908
418,3,0.3539,-0.0056,-0.0147,0.6173,0.5052,0.2410,0.1426,0.4449,0.3453,0.0241,-0.0105,0.7313,0.4784,-0.0703,0.0103,0.6198,0.5538,-0.3577,-0.1813,0.7657,0.5588
419,3,0.2528,-0.1326,0.0250,0.6327,0.4691,0.2402,0.2276,0.4607,0.3221,0.0483,0.0387,0.7421,0.5024,-0.0360,0.0493,0.6413,0.5485,-0.3581,-0.2067,0.7827,0.5594
420,0,0.2532,-0.1090,0.0107,0.6544,0.5504,0.1762,0.3272,0.6097,0.3510,0.0314,0.1534,0.7388,0.5222,-0.0090,0.1345,0.6431,0.5360,-0.3184,-0.2308,0.7910,0.5575
421,0,0.1457,-0.0830,0.0115,0.6707,0.5937,0.1610,0.2838,0.5908,0.4086,0.0229,0.1709,0.6818,0.5162,-0.0205,0.1528,0.6285,0.5413,-0.3097,-0.2091,0.8298,0.5640
423,1,0.2793,-0.1746,0.1545,0.5989,0.5296,0.0487,-0.1157,0.6616,0.3851,-0.0517,-0.0038,0.7832,0.4821,-0.1306,0.1300,0.6815,0.5517,-0.4172,0.0777,0.8966,0.5753
424,1,0.5722,-0.1594,0.1861,0.6216,0.4884,0.0692,-0.0152,0.7495,0.3715,-0.0313,0.1259,0.7852,0.4986,-0.1061,0.2457,0.6587,0.5625,-0.3615,0.1761,0.8632,0.5539
425,1,0.3539,-0.2041,0.1981,0.6334,0.4540,0.1552,0.0580,0.6022,0.3841,0.0310,0.1473,0.6758,0.4986,-0.0941,0.2263,0.5439,0.5686,-0.3849,0.1570,0.7630,0.5282
426,0,0.2065,-0.2409,0.1495,0.6449,0.5444,0.1480,0.0820,0.5981,0.3335,0.0254,0.2182,0.6316,0.4922,-0.0867,0.2744,0.5141,0.5666,-0.4025,0.1816,0.7635,0.5259
427,1,0.6076,-0.2521,0.1117,0.6733,0.6611,0.1046,0.0713,0.7829,0.3146,-0.0111,0.2476,0.7508,0.5336,-0.0659,0.3446,0.6077,0.6184,-0.3515,0.2608,0.8196,0.5940
428,1,0.5441,-0.2384,0.1159,0.6333,0.4648,0.1474,0.0972,0.6862,0.3397,0.0074,0.2190,0.6992,0.5383,-0.0806,0.3341,0.5418,0.6054,-0.3586,0.2715,0.7349,0.5740
430,1,0.2212,-0.1549,-0.0239,0.9262,1.0011,0.1748,0.0170,0.7453,0.4519,0.0195,0.1352,0.7536,0.5582,-0.1213,0.3281,0.4953,0.6209,-0.4130,0.3289,0.6379,0.5648
431,1,0.3567,-0.1882,-0.0126,0.9282,1.1740,0.1274,0.0590,0.9697,0.4689,-0.0011,0.2139,0.9212,0.6613,-0.0513,0.3958,0.6647,0.7258,-0.3005,0.3332,0.7597,0.7107
434,0,0.1630,-0.0307,0.0423,0.9202,1.1549,0.1247,-0.1066,0.8800,0.4895,-0.0716,-0.0264,0.9111,0.5991,-0.1057,0.2752,0.6291,0.6941,-0.3274,0.2542,0.8206,0.8111
435,1,0.3645,-0.0372,0.0653,0.8552,1.1028,0.0875,-0.0285,0.9842,0.4900,-0.0278,0.0787,0.9758,0.6387,-0.0530,0.3509,0.6997,0.6911,-0.2559,0.2707,0.8452,0.8171
439,3,0.2392,0.0975,-0.0859,0.6654,0.6956,0.2468,0.1576,0.4757,0.4188,0.0683,-0.0623,0.7506,0.5196,0.0104,-0.0738,0.6324,0.5777,-0.2028,-0.3331,0.7281,0.5653
440,0,0.2880,0.0835,-0.1341,0.6544,0.7437,0.2431,0.1835,0.6049,0.5235,0.0825,-0.0519,0.8196,0.5983,0.0287,-0.0736,0.6994,0.5795,-0.2242,-0.3974,0.7462,0.5168
442,3,0.2355,0.0497,-0.1196,0.3788,0.3955,0.1562,0.0989,0.3117,0.2978,0.0440,-0.0054,0.4201,0.3266,-0.0091,-0.0257,0.3781,0.3297,-0.2159,-0.1391,0.4409,0.3363
443,0,0.2379,0.0513,-0.0149,0.4798,0.6271,0.1202,-0.0360,0.6821,0.4504,0.0080,-0.0057,0.7295,0.5620,-0.0042,0.1068,0.5855,0.5077,-0.1611,0.0265,0.5358,0.5714
444,1,0.2665,-0.0232,0.0656,0.7837,0.9222,0.1588,-0.1015,1.1816,0.6414,0.0138,-0.0007,1.2568,0.8397,0.0254,0.1677,1.0348,0.7906,-0.1608,0.0094,0.9054,1.0376
445,1,0.2763,-0.1062,0.1429,0.7297,0.7729,0.1146,-0.0370,1.3568,0.6290,0.0399,0.1289,1.3634,0.8769,0.0731,0.2643,1.1662,0.8198,-0.0701,0.0231,1.0064,1.1556
447,1,0.3257,-0.1187,0.1374,0.6605,1.0433,0.1838,0.5707,1.6567,0.9379,0.1485,0.7885,1.5596,1.2174,0.1735,0.8238,1.4375,1.1776,0.0297,0.4270,1.3398,1.2953
448,1,0.4840,-0.2436,0.2069,0.6718,0.6764,0.1870,0.1777,0.8201,0.3800,0.1488,0.2946,0.8058,0.6038,0.0706,0.2899,0.6758,0.6541,-0.1427,0.0614,0.7887,0.7261
449,0,0.3963,-0.2605,0.2923,0.6242,0.5108,0.1575,0.0907,0.7517,0.3179,0.0913,0.1788,0.7801,0.4871,0.0058,0.2425,0.6020,0.5290,-0.2209,0.1287,0.7379,0.5799
450,0,0.2592,-0.1900,0.3801,0.5299,0.7618,0.1525,0.5357,1.5886,0.7961,0.0777,0.7175,1.5453,0.9112,0.0889,0.8073,1.3467,0.9030,-0.0420,0.5908,1.2567,1.1705
451,0,0.2803,-0.1350,0.4096,0.4666,0.9402,0.1622,0.9070,1.9700,1.1544,0.0781,1.1106,1.9388,1.1390,0.1436,1.1810,1.7732,1.1140,0.0720,0.8594,1.5791,1.5147
452,0,0.2565,-0.1378,0.3935,0.4748,0.9450,0.1659,0.8840,1.9697,1.1588,0.0815,1.0921,1.9456,1.1385,0.1533,1.1512,1.7825,1.1148,0.0722,0.8115,1.5952,1.5174
453,0,0.4075,-0.1733,0.3698,0.5209,0.9254,0.1884,0.6865,1.9092,1.0162,0.1322,0.9307,1.8218,1.0771,0.1915,0.9520,1.6800,1.0525,0.0882,0.6058,1.4768,1.4826
454,0,0.2839,-0.2335,0.3175,0.6116,0.7265,0.2210,0.2789,1.1107,0.5244,0.1779,0.4258,1.0524,0.6347,0.1321,0.3736,0.9694,0.6880,-0.0541,0.1262,0.9830,0.9408
457,0,0.2334,-0.1058,0.4741,0.4113,0.8395,0.2147,0.8807,1.9697,1.0418,0.1143,1.0969,1.9591,0.9935,0.1953,1.1912,1.8150,0.8453,0.0914,0.7460,1.7059,1.3227
458,0,0.3580,-0.1493,0.4474,0.4749,0.8301,0.2016,0.6101,1.9157,0.8177,0.1688,0.8596,1.8136,0.9502,0.2415,0.8963,1.7143,0.8620,0.1036,0.4698,1.4920,1.4278
459,0,0.2374,-0.2209,0.3915,0.5795,0.7099,0.2041,0.2773,1.3304,0.4375,0.2329,0.4568,1.1947,0.6543,0.2107,0.3646,1.1767,0.7115,0.0180,0.0552,1.0297,1.0970
460,0,0.1725,-0.1790,0.3816,0.5713,0.5677,0.2083,0.3352,0.9163,0.2521,0.1980,0.4577,0.8328,0.4074,0.1267,0.3519,0.8275,0.5513,-0.1074,0.0882,0.8957,0.7778
461,0,0.5037,-0.0716,0.4702,0.4395,0.6360,0.1877,0.7269,1.5015,0.6423,0.1191,0.9268,1.4622,0.5807,0.1403,0.9416,1.4022,0.6115,-0.0447,0.5479,1.3672,1.1323
462,0,0.3658,-0.0339,0.5221,0.3808,0.7533,0.1865,0.9270,1.9697,1.0252,0.0941,1.1693,1.9696,0.7528,0.1819,1.2338,1.8800,0.6936,0.0439,0.7390,1.6974,1.4490
464,0,0.5964,-0.1268,0.4874,0.4821,0.7424,0.1801,0.4911,1.6668,0.6957,0.1626,0.7551,1.5873,0.6299,0.2050,0.7544,1.4675,0.7102,0.0505,0.3322,1.3360,1.2506
465,0,0.2184,-0.1946,0.4186,0.5262,0.5497,0.1961,0.1820,0.9663,0.2670,0.2130,0.3414,0.8495,0.3563,0.1545,0.2911,0.7846,0.4988,-0.0839,0.0960,0.8175,0.7043
466,0,0.1548,-0.1558,0.4660,0.4777,0.4878,0.1927,0.5711,1.2692,0.5618,0.2258,0.7851,1.1956,0.3676,0.2238,0.7634,1.0107,0.8409,-0.2727,0.5775,1.2040,0.5270
468,0,0.2248,-0.1276,0.5091,0.4751,0.6271,0.2433,0.9488,1.9697,0.8789,0.1219,1.2946,1.9470,0.4894,0.3321,1.2822,1.6218,1.3066,-0.2031,0.8967,1.8794,0.7428
469,0,0.3487,-0.1716,0.4380,0.5409,0.6519,0.3905,0.8402,1.9258,0.5378,0.0392,1.2284,1.8929,0.3172,0.2384,1.1517,1.6371,1.0882,-0.0324,0.7277,1.7299,0.9706
470,0,0.3390,-0.2092,0.3893,0.6374,0.6198,0.3191,0.4374,1.3737,0.2946,0.1411,0.7166,1.2812,0.2625,0.1571,0.5599,1.1479,0.7412,-0.0056,0.2193,1.1603,0.9028
472,4,0.1486,-0.0225,0.0874,0.1504,0.1915,0.0886,0.0213,0.0327,0.0304,0.0779,-0.0249,0.1033,0.0178,0.0291,-0.0654,0.0966,0.0755,-0.1050,-0.0387,0.1819,0.0389
476,0,0.2086,-0.1338,0.2375,0.3402,0.3236,0.1086,0.0738,0.5952,0.1994,0.1078,0.1825,0.5201,0.2930,0.0573,0.1390,0.4685,0.3397,-0.0476,0.0083,0.4843,0.4790
477,0,0.3005,-0.2235,0.3814,0.6050,0.5154,0.2141,0.0451,0.5789,0.1971,0.1857,0.1258,0.5424,0.2771,0.0098,0.1100,0.4785,0.4103,-0.2292,0.0222,0.6357,0.4635
478,0,0.1459,-0.1869,0.4182,0.5300,0.5403,0.2085,0.2924,0.9019,0.3719,0.1403,0.3818,0.9020,0.4265,0.0358,0.4550,0.7996,0.4953,-0.1927,0.2779,0.9105,0.6343
479,4,0.1534,-0.1397,0.4951,0.4162,0.6240,0.1876,0.7510,1.7683,0.8823,0.1007,0.9514,1.7491,0.9094,0.1658,1.0351,1.6082,0.8162,0.0098,0.5787,1.5139,1.3093
482,0,0.1811,-0.1734,0.4404,0.5355,0.6886,0.1952,0.5560,1.7085,0.7402,0.1523,0.8000,1.5906,0.8944,0.1882,0.8432,1.4634,0.8628,0.0372,0.4351,1.4144,1.3154
483,0,0.2413,-0.1855,0.3600,0.6217,0.6187,0.2024,0.1993,0.8823,0.2984,0.1890,0.2892,0.8309,0.4452,0.0509,0.3225,0.7084,0.5216,-0.1546,0.1847,0.8481,0.6680
484,0,0.2691,-0.0908,0.2079,0.3703,0.3672,0.1234,0.0869,0.3210,0.0866,0.1063,0.0756,0.3257,0.1403,-0.0130,0.1096,0.2483,0.2071,-0.1708,0.0830,0.3853,0.1931
485,0,0.3098,-0.0373,0.1841,0.1620,0.2645,0.0616,0.2844,0.6582,0.2924,0.0315,0.3732,0.6234,0.2220,0.0607,0.4167,0.5001,0.3801,-0.0378,0.2646,0.6127,0.0689
486,0,0.1697,-0.1051,0.3596,0.4016,0.5123,0.1273,0.6445,1.4580,0.6988,0.0507,0.8848,1.4026,0.5453,0.1421,0.9655,1.2165,0.7259,-0.1755,0.6445,0.9442,-0.0423
487,0,0.1625,-0.1957,0.4506,0.5963,0.6904,0.1772,0.5193,1.7702,0.7104,0.1620,0.8452,1.6090,0.7530,0.2244,0.8919,1.4936,0.8195,-0.0842,0.5335,1.0461,0.5909
488,0,0.1823,-0.2028,0.3961,0.6220,0.6770,0.2048,0.1173,1.0204,0.3407,0.2259,0.2858,0.9313,0.4586,0.1205,0.2699,0.8564,0.5739,-0.0697,0.0857,0.9043,0.7888
489,0,0.4087,-0.1563,0.4359,0.5403,0.6284,0.2063,0.3597,1.0270,0.4067,0.1678,0.4692,0.9694,0.4738,0.0733,0.4534,0.8885,0.5941,-0.1358,0.2586,0.9842,0.7712
490,0,0.2861,-0.1162,0.5248,0.4311,0.6794,0.1940,0.7937,1.7995,0.8592,0.1642,1.0248,1.7201,0.7871,0.0695,1.0341,1.5861,0.9774,0.0251,0.6548,1.5106,1.3277
492,0,0.2203,-0.1758,0.4907,0.5324,0.6698,0.1787,0.6537,1.8859,0.8069,0.2933,0.9580,1.7774,0.7075,-0.0096,0.9499,1.6092,1.1003,0.0464,0.5606,1.5259,1.2291
493,0,0.3419,-0.2386,0.4187,0.6146,0.6212,0.2125,0.2375,1.2194,0.4269,0.2317,0.4439,1.0847,0.5694,0.0867,0.4587,0.9686,0.7058,-0.0455,0.2129,1.0614,0.8154
494,0,0.2275,-0.1872,0.2531,0.4869,0.3916,0.1685,0.0114,0.4324,0.1523,0.1354,0.0831,0.3655,0.2108,0.0051,0.1149,0.3227,0.3107,-0.1184,0.0381,0.5119,0.3942
495,4,0.2544,-0.0063,0.2608,0.1842,-0.0233,0.2357,0.3937,0.9019,0.3808,0.1863,0.4627,0.8616,0.4153,0.1441,0.4210,0.9001,0.4733,0.0052,0.1661,0.9485,0.0591
496,0,0.1966,-0.0166,0.3720,0.2129,0.1552,0.2667,0.6713,1.5457,0.6869,0.2013,0.8377,1.4939,0.7259,0.2381,0.7748,1.4780,0.7841,0.0622,0.3294,1.4857,0.3700
497,0,0.2825,-0.2167,0.4103,0.4608,0.6354,0.1831,0.2656,1.4784,0.5675,0.1639,0.5065,1.3661,0.6796,0.1538,0.5349,1.2891,0.7995,0.0354,0.2419,1.2295,0.9951
498,1,0.3619,-0.2701,0.4305,0.6011,0.6742,0.1390,-0.0313,1.1180,0.3221,0.1556,0.1568,1.0400,0.5016,0.0370,0.2712,0.8976,0.6478,-0.0546,0.1110,0.9158,0.8987
499,0,0.4858,-0.2209,0.3961,0.6381,0.6848,0.0973,0.1362,1.0569,0.3395,0.0725,0.2946,1.0008,0.4724,-0.0059,0.4419,0.7577,0.6299,-0.1766,0.2512,0.9270,0.6443
500,0,0.3095,-0.1742,0.4124,0.5688,0.8575,0.1475,0.6380,1.6443,0.7387,0.0627,0.8632,1.5937,0.7078,0.0965,0.9504,1.3682,0.8515,-0.0648,0.6387,1.3672,1.0503
501,0,0.1961,-0.1460,0.4428,0.4908,0.9979,0.1824,0.8289,1.9697,1.0075,0.0853,1.1009,1.9519,0.8658,0.1631,1.1283,1.8108,0.9553,0.0616,0.7478,1.6195,1.4506
502,0,0.1601,-0.1109,0.2939,0.3232,0.6231,0.1122,0.3942,1.2504,0.5871,0.0747,0.5785,1.1892,0.5541,0.1055,0.5690,1.1003,0.6074,0.0254,0.3419,0.9649,0.9229
503,0,0.2843,-0.0985,0.1206,0.1712,0.2773,0.0667,-0.0108,0.4237,0.1004,0.0775,0.0654,0.3536,0.1429,0.0465,0.0717,0.2910,0.1666,0.0089,0.0591,0.2547,0.2463
504,0,0.2219,-0.1186,0.2689,0.3544,0.5345,0.1326,0.2978,1.0509,0.3455,0.1034,0.4025,0.9677,0.3897,0.1098,0.3901,0.8650,0.4570,0.0114,0.2442,0.7752,0.6541
505,0,0.2435,-0.1059,0.4437,0.5025,0.7721,0.1804,0.7830,1.8775,0.8240,0.0882,0.9780,1.8126,0.7597,0.1701,0.9357,1.6976,0.9332,-0.0185,0.5355,1.5979,1.1859
506,0,0.2913,-0.0983,0.3500,0.3767,0.5924,0.1411,0.5280,1.4767,0.6667,0.0921,0.7410,1.4163,0.6074,0.1496,0.7107,1.3352,0.7666,0.0039,0.3899,1.2349,0.9405
507,1,0.3475,-0.1573,0.3246,0.4499,0.5234,0.0978,0.1129,0.8688,0.2818,0.1220,0.2806,0.7583,0.3494,0.0735,0.1927,0.7028,0.4649,-0.0528,0.0150,0.6885,0.6125
508,0,0.4350,-0.1996,0.4182,0.6015,0.6162,0.0984,0.1684,0.8799,0.2127,0.1077,0.3282,0.7479,0.3100,0.0085,0.2629,0.6478,0.4416,-0.1746,0.0266,0.7857,0.5429
509,0,0.2495,-0.1365,0.4775,0.4937,0.6563,0.1421,0.5604,1.4881,0.5992,0.0815,0.8005,1.4121,0.5136,0.0830,0.8134,1.2685,0.6261,-0.0737,0.3530,1.2124,0.9929
511,0,0.1790,-0.1565,0.4762,0.5218,0.6610,0.1483,0.3891,1.4699,0.5813,0.1246,0.6727,1.3749,0.5682,0.1326,0.6546,1.2684,0.6638,-0.0024,0.2287,1.2423,1.1262
512,0,0.2747,-0.1705,0.4295,0.6117,0.6145,0.0944,0.0162,0.7271,0.1957,0.1327,0.1593,0.6852,0.2800,0.0180,0.1418,0.5835,0.3940,-0.1401,-0.0923,0.7675,0.5356
513,2,0.1468,-0.1357,0.4316,0.5362,0.5733,0.0730,-0.0543,0.8352,0.2750,0.1073,0.1514,0.8994,0.3930,0.0501,0.2213,0.8033,0.5372,-0.1285,0.0261,0.8001,0.6800
514,0,0.1891,-0.0652,0.2269,0.2234,0.2752,0.0303,-0.0283,0.5942,0.2097,0.0430,0.1474,0.6304,0.3028,0.0628,0.2032,0.5932,0.3856,-0.0219,0.0920,0.4717,0.5133
516,0,0.1874,-0.1459,0.3447,0.4444,0.4688,0.1087,0.1205,1.0875,0.3822,0.1297,0.3380,1.0055,0.4539,0.1338,0.2967,0.9642,0.5748,0.0318,0.0619,0.8831,0.8084
519,0,0.2881,-0.0313,0.1866,0.1596,0.2514,0.0672,0.2807,0.6458,0.3537,0.0342,0.3874,0.6377,0.2455,0.0606,0.3968,0.6087,0.2601,0.0236,0.2593,0.5841,0.4070
520,0,0.5083,-0.0517,0.4053,0.3311,0.5560,0.1671,0.6393,1.5413,0.8014,0.0664,0.8841,1.5407,0.5707,0.1445,0.9038,1.4643,0.6323,0.0816,0.5650,1.3981,0.9719
521,0,0.8337,-0.1340,0.4668,0.5194,0.6881,0.1887,0.4593,1.6253,0.7572,0.1416,0.7469,1.5673,0.6279,0.1846,0.7457,1.4636,0.7435,0.0560,0.4100,1.4170,1.0906
522,0,0.2282,-0.1791,0.3776,0.5766,0.6106,0.1526,0.1314,0.9321,0.3439,0.1747,0.3029,0.8381,0.3690,0.1014,0.3058,0.7439,0.4927,-0.0956,0.1717,0.8225,0.6293
523,0,0.1511,-0.1270,0.4158,0.4851,0.6167,0.1644,0.5231,1.2420,0.6103,0.2118,0.7351,1.1927,0.3504,0.0823,0.7832,1.0253,0.5571,-0.2051,0.6043,1.0018,0.3546
524,0,0.4730,-0.0839,0.4783,0.4462,0.6166,0.2299,0.9151,1.9352,1.0111,0.2342,1.2385,1.9100,0.5415,0.1387,1.3217,1.6522,0.8156,-0.1560,0.9913,1.5666,0.6819
525,0,0.6001,-0.0501,0.4312,0.4456,0.5677,0.3298,0.8788,1.9643,0.9532,0.1397,1.1743,1.9079,0.6901,0.1415,1.2897,1.6508,0.8646,-0.0032,0.9602,1.6116,1.1608
526,0,0.5484,-0.1249,0.3919,0.5189,0.6111,0.2683,0.4731,1.4806,0.5826,0.0976,0.6891,1.3767,0.6228,0.1232,0.7981,1.1997,0.7251,0.0631,0.5523,1.1684,1.1044
527,4,0.1975,-0.2408,0.4237,0.5179,0.5788,0.1351,0.2392,0.9642,0.2712,0.0852,0.3749,0.8832,0.4127,0.1145,0.4266,0.7534,0.6289,-0.0354,0.2498,0.8876,0.6463
529,0,0.2563,-0.3300,0.5007,0.7103,0.8400,0.2325,0.6576,1.8541,0.7821,0.1400,0.9672,1.7450,0.6742,0.2636,1.0086,1.5277,1.1103,0.0383,0.6179,1.6296,1.0897
530,0,0.2859,-0.1693,0.4452,0.6212,0.6698,0.1806,0.2631,1.2975,0.4246,0.1437,0.4460,1.1670,0.5425,0.1797,0.4502,1.0804,0.6732,0.0596,0.1167,1.1343,0.9808
531,0,0.1473,-0.0874,0.2060,0.3596,0.3424,0.0715,0.0473,0.4377,0.1094,0.0510,0.0714,0.4042,0.1979,0.0665,0.0628,0.3579,0.2490,-0.0046,-0.1010,0.4589,0.3572
532,4,0.1584,-0.0021,0.0053,0.0108,0.0101,0.0025,0.0029,0.0095,0.0023,0.0014,0.0020,0.0100,0.0049,0.0019,0.0013,0.0089,0.0063,-0.0011,-0.0053,0.0158,0.0071
533,0,0.4748,-0.0176,0.0520,0.0676,0.0791,0.0345,0.0409,0.1965,0.0622,0.0380,0.0769,0.1650,0.0926,0.0406,0.0818,0.1518,0.0945,0.0225,0.0364,0.1299,0.1582
534,0,0.3290,-0.0536,0.2285,0.4029,0.3723,0.1084,0.0805,0.6132,0.2125,0.1215,0.1488,0.5656,0.3050,0.0895,0.1307,0.5188,0.3679,0.0067,-0.0796,0.5415,0.5373
535,0,0.3373,-0.0418,0.3461,0.6796,0.5923,0.1082,0.0371,0.7694,0.2858,0.1231,0.1089,0.7679,0.3853,0.0659,0.0636,0.7058,0.4953,-0.0557,-0.2705,0.8162,0.6671
536,1,0.4780,-0.0403,0.3305,0.7095,0.6236,0.0632,-0.0214,0.7590,0.2682,0.0617,0.0960,0.7693,0.3635,0.0387,0.0636,0.7072,0.4629,-0.0653,-0.2793,0.8343,0.6313
537,1,0.3074,-0.0307,0.1720,0.7004,0.6812,0.0453,-0.0356,0.9307,0.3535,0.0101,0.0784,0.9241,0.4912,0.0364,0.1102,0.7541,0.5573,-0.0474,-0.2446,0.8635,0.7912
538,1,0.1605,0.2334,-0.0447,0.5310,0.3160,0.0343,-0.0010,1.0631,0.4376,0.0026,0.2457,0.9807,0.5733,0.0565,0.1657,0.8927,0.7040,-0.0030,-0.3169,0.9768,1.1245
539,1,0.3297,0.3209,-0.1169,0.4691,0.1511,0.0291,0.0734,1.2815,0.6382,0.0218,0.3158,1.1160,0.7497,0.0805,0.1528,1.1350,0.9055,0.0250,-0.3883,1.1004,1.4371
540,2,0.1782,0.2794,-0.1189,0.4926,0.3158,0.0195,0.1266,1.3790,0.7169,0.0076,0.2810,1.2035,0.8284,0.0691,0.1207,1.2081,0.9813,0.0208,-0.3890,1.1107,1.5181
541,4,0.2099,0.4818,-0.1342,0.3558,-0.0488,-0.0532,0.0969,1.5408,0.7289,-0.0196,0.6412,1.1151,0.4322,0.0861,0.2857,1.4067,1.0199,0.0382,-0.3905,1.2361,1.5181
544,1,0.2258,0.2287,-0.0534,0.5356,0.6311,-0.0411,0.0409,1.6432,0.9366,-0.0183,0.6213,1.4311,0.6587,0.1224,0.4242,1.4124,1.0102,-0.0021,-0.1466,1.2104,1.4951
547,0,0.1855,0.1784,-0.1387,0.5278,0.3049,0.1794,-0.0121,0.3712,0.2232,0.0622,0.0485,0.6617,0.5174,0.0536,0.0401,0.6796,0.6575,-0.0882,-0.2322,0.8412,0.8404
551,2,0.2241,0.4885,-0.0493,0.5403,0.6900,0.1451,0.0167,0.7024,0.2900,-0.0338,-0.0884,0.9625,0.7910,0.0222,0.0012,0.9746,0.9204,-0.0447,-0.3365,0.7940,0.7886
552,2,0.1435,0.5805,0.0339,0.5576,1.1466,0.0743,0.0709,1.0055,0.3581,-0.1211,-0.2089,1.4115,1.1228,-0.0237,0.0738,1.3330,1.2834,-0.0261,-0.3235,0.8900,1.0856
555,0,0.1848,0.6179,0.0382,0.5564,0.9563,0.1058,0.1259,0.7427,0.1445,0.0163,0.0507,0.6714,0.3891,0.0330,-0.1607,0.8505,0.7585,0.1164,-0.2931,0.9627,1.3853
558,3,0.1869,0.4281,-0.0732,0.5424,0.6306,0.1307,0.0810,0.3954,0.1959,0.0257,0.0187,0.3062,0.2744,0.0504,-0.1095,0.2260,0.3105,-0.0199,-0.1566,0.3847,0.2435
559,1,0.2560,0.2759,-0.0815,0.5599,0.5140,0.0410,0.2116,0.7287,0.3687,-0.0404,0.1550,0.5602,0.4152,0.0153,0.0350,0.3860,0.3814,-0.0514,-0.2601,0.5445,0.2162
560,3,0.1755,0.1839,-0.0717,0.5842,0.7517,-0.0386,0.3362,1.2510,0.6458,-0.0618,0.1240,1.0381,0.6716,0.0185,0.0536,0.7161,0.5545,-0.0122,-0.3119,0.6979,0.4242
561,0,0.1639,0.1497,-0.1168,0.5523,0.6313,0.0717,0.2413,0.9100,0.5095,0.0238,-0.0084,0.8407,0.5847,0.0625,-0.0736,0.6305,0.5075,-0.0337,-0.3137,0.6049,0.3437
563,0,0.1760,0.2743,-0.0990,0.5665,0.6067,0.1381,0.0406,0.6289,0.2748,0.0101,0.2404,0.8569,0.6995,0.0240,0.1508,0.8191,0.7306,-0.0910,-0.2709,0.7036,0.5551
564,2,0.1566,0.3370,-0.0918,0.5555,0.8641,0.1472,0.0569,0.7817,0.2892,0.0518,0.2447,0.9737,0.7907,0.0726,0.1221,1.0043,0.8719,-0.0414,-0.3530,0.8139,0.7968
566,0,0.1607,0.4831,-0.0341,0.5657,0.7667,0.1296,0.0944,0.7570,0.2745,-0.0463,-0.0523,1.0126,0.8199,-0.0079,0.0514,0.9590,0.8893,-0.0811,-0.2752,0.6595,0.5008
570,0,0.1637,0.5449,-0.0182,0.5553,0.8679,0.1870,0.0930,0.5195,0.1598,0.1173,0.0337,0.4152,0.2799,0.0648,-0.1856,0.6234,0.6170,0.0571,-0.2660,0.7980,1.0093
571,0,0.1799,0.6840,0.0829,0.5596,1.1582,0.1097,0.1423,0.7747,0.1408,0.0178,0.0014,0.7260,0.4001,0.0055,-0.2066,0.9000,0.8136,0.2008,-0.0812,0.8988,1.4959
572,0,0.1963,0.6178,0.0165,0.5532,1.0676,0.1401,0.1196,0.5793,0.1461,0.0176,-0.0540,0.5320,0.3351,0.0160,-0.1774,0.5041,0.5224,0.0959,-0.0297,0.5532,0.9182
574,0,0.2713,0.4536,-0.0566,0.5914,0.8140,0.1672,0.1180,0.6607,0.2572,-0.0357,-0.0631,0.9476,0.7552,-0.0172,0.1174,0.9017,0.8634,-0.0942,-0.2922,0.5790,0.4062
577,0,0.2604,0.3485,-0.1190,0.5509,0.6711,0.2447,0.0195,0.3247,0.2273,0.1195,0.0382,0.3880,0.3689,0.0633,0.0051,0.3494,0.4211,-0.1063,-0.2543,0.3988,0.1425
578,0,0.1679,0.3189,-0.1088,0.5581,0.7289,0.1824,0.0440,0.6114,0.2864,0.0554,0.1809,0.7378,0.5934,0.0583,0.1096,0.7349,0.6752,-0.0629,-0.3401,0.6583,0.5189
579,1,0.2498,0.2869,-0.1374,0.5278,0.5162,0.1552,0.0591,0.4683,0.2958,0.0606,0.1448,0.4295,0.4239,0.0952,-0.0259,0.4834,0.4841,-0.0546,-0.3697,0.5836,0.3682
580,1,0.2511,0.1822,-0.1276,0.5811,0.5370,0.0464,0.2546,0.8823,0.5309,-0.0044,0.1018,0.6801,0.5283,0.0692,-0.0305,0.5153,0.4400,-0.0286,-0.3278,0.5506,0.2044
581,0,0.2676,0.0917,-0.0991,0.6622,1.0053,-0.0809,0.4288,1.4896,0.7773,-0.0480,0.1306,1.2203,0.7935,0.0544,0.0548,0.8716,0.6324,0.0170,-0.2896,0.6922,0.4372
582,2,0.1637,0.0771,-0.1234,0.6567,1.0394,-0.0674,0.3846,1.2527,0.6574,0.0000,0.1237,1.0353,0.6811,0.0621,0.0298,0.7920,0.6039,0.0027,-0.2663,0.6835,0.4609
583,0,0.1863,0.1415,-0.1463,0.5611,0.5136,0.1353,0.1781,0.4831,0.3276,0.0636,0.0866,0.4569,0.4037,0.0680,-0.0525,0.4187,0.4091,-0.0621,-0.2540,0.5070,0.2200
584,1,0.2051,0.2398,-0.1181,0.5438,0.3539,0.1908,0.0545,0.4087,0.2123,0.0459,0.1660,0.6321,0.5965,0.0543,0.0838,0.6117,0.6279,-0.0806,-0.2468,0.6299,0.4796
585,0,0.1665,0.3083,-0.0758,0.5809,0.8725,0.0961,0.1249,0.9234,0.2967,-0.0046,0.3064,1.2610,1.0519,0.0475,0.2832,1.1929,1.1038,-0.0514,-0.2961,0.9189,1.0897
586,2,0.2155,0.3549,-0.0701,0.5593,1.0680,0.1273,0.1601,0.8380,0.2717,0.0114,0.2687,1.0623,0.9377,0.0567,0.1662,1.0990,1.0277,-0.0472,-0.3511,0.8828,1.1016
587,2,0.1580,0.4132,-0.0812,0.5596,0.7533,0.1648,0.1428,0.6001,0.2516,0.0065,0.0789,0.7710,0.6935,0.0244,-0.0037,0.7625,0.7292,-0.1184,-0.2571,0.5510,0.5119
588,0,0.3348,0.5048,-0.0394,0.5772,0.8420,0.1084,0.1573,0.8190,0.3240,-0.0909,-0.0405,1.1803,0.9688,-0.0737,0.0671,1.0006,0.8387,-0.1836,-0.1484,0.3982,0.2030
589,0,0.3257,0.5148,-0.0460,0.5802,1.0162,0.1173,0.1444,0.7514,0.3065,-0.0651,-0.1015,1.0964,0.8822,-0.0784,0.0520,0.8837,0.7667,-0.1804,-0.1544,0.3824,0.1991
593,0,0.2070,0.5149,-0.0599,0.5119,0.7412,0.1729,0.1149,0.3691,0.2064,0.0239,-0.1056,0.5066,0.4526,0.0402,-0.1880,0.4412,0.5409,-0.1433,-0.1331,0.4202,0.3495
594,0,0.1667,0.4478,-0.0558,0.5819,0.7120,0.1624,0.1485,0.6178,0.2485,-0.0666,-0.1230,1.0982,1.0397,-0.0196,0.0240,1.0292,1.0780,-0.1378,-0.2667,0.7214,0.7281
596,0,0.1791,0.4042,-0.1025,0.5278,0.5448,0.2136,0.0699,0.2745,0.1975,0.0471,-0.0071,0.4392,0.4194,0.0033,0.0234,0.3673,0.5022,-0.1536,-0.2334,0.5040,0.2910
597,0,0.1675,0.3218,-0.0935,0.5703,0.5495,0.1621,0.1303,0.6857,0.2508,0.0191,0.2381,0.9302,0.7902,0.0486,0.1961,0.9259,0.9229,-0.0563,-0.2749,0.8208,0.9333
599,1,0.3052,0.2497,-0.1059,0.4241,0.2313,0.0622,0.1669,0.6052,0.3641,0.0114,0.1338,0.4446,0.3933,0.0935,-0.0409,0.3811,0.3722,-0.0223,-0.2752,0.4408,0.1892
601,2,0.3382,0.2042,-0.1063,0.4852,0.5442,0.0630,0.2655,0.8617,0.5053,0.0215,-0.0074,0.8038,0.5809,0.0757,-0.0672,0.5745,0.4686,-0.0222,-0.2380,0.4747,0.1848
602,0,0.1512,0.2460,-0.1193,0.4663,0.2375,0.1902,0.0837,0.2658,0.2127,0.0690,0.0445,0.3775,0.3505,0.0523,-0.0323,0.3603,0.3738,-0.1206,-0.1936,0.4940,0.1851
603,0,0.1551,0.2287,-0.1216,0.5730,0.5360,0.1070,0.0282,0.6531,0.3643,0.0133,0.2102,0.8263,0.6904,0.0337,0.2078,0.8183,0.7626,-0.1256,-0.1056,0.8652,0.8556
604,0,0.1864,0.2607,-0.1614,0.5820,0.6329,0.1487,-0.0349,0.6610,0.4016,0.0553,0.1895,0.7958,0.6994,0.0713,0.1517,0.8968,0.8411,-0.1027,-0.1521,0.8953,1.0277
605,0,0.3666,0.3526,-0.1581,0.5654,0.5273,0.1909,-0.0092,0.3740,0.3146,0.0298,-0.0064,0.5965,0.5993,0.0289,-0.0156,0.7211,0.7462,-0.1146,-0.2754,0.6662,0.5622
606,0,0.3190,0.4460,-0.0577,0.6265,0.9006,0.1035,0.0486,0.6877,0.4015,-0.0989,-0.2180,1.1368,1.1086,-0.0426,0.0540,1.1052,1.1797,-0.0859,-0.3383,0.7661,0.7422
607,0,0.2305,0.4885,-0.0471,0.6165,0.9453,0.1674,0.0290,0.5410,0.3472,0.0106,-0.2718,0.7996,0.8312,0.0334,-0.0267,0.7907,0.9312,-0.0367,-0.3934,0.7022,0.6650
608,0,0.3991,0.5018,-0.0582,0.5888,0.7930,0.2173,0.0597,0.3841,0.2179,0.1366,-0.1479,0.2916,0.2768,0.1083,-0.2038,0.5215,0.5777,0.0358,-0.4081,0.7804,0.8169
612,0,0.1878,0.4426,-0.0439,0.5784,0.8491,0.1261,0.1003,0.7798,0.2594,-0.0269,-0.1167,0.9556,0.7456,0.0184,0.0641,0.9079,0.8541,-0.0205,-0.2985,0.6603,0.5370
618,1,0.2103,0.2821,-0.1451,0.5302,0.4021,0.0665,0.0682,0.4540,0.3314,0.0051,0.1701,0.2338,0.2737,0.0513,0.0684,0.1545,0.2966,-0.0923,-0.2135,0.4242,0.1360
619,0,0.2473,0.2025,-0.1194,0.5770,0.5666,-0.0340,0.2872,1.0462,0.6149,-0.0565,0.1729,0.7552,0.5756,0.0184,0.1181,0.4681,0.4563,-0.0472,-0.2163,0.5319,0.2143
622,1,0.1647,0.2564,-0.1316,0.5000,0.2535,0.2022,0.0706,0.3218,0.2030,0.0431,0.1296,0.4353,0.4399,0.0271,0.0560,0.4493,0.5067,-0.0996,-0.2224,0.6466,0.4648
623,1,0.3094,0.2193,-0.1290,0.6028,0.6739,0.0871,0.0394,0.8727,0.4169,0.0010,0.2771,1.0737,0.9512,0.0351,0.2224,1.0162,1.0266,-0.0583,-0.2504,0.9581,1.1567
624,0,0.1418,0.2093,-0.1443,0.6461,1.0433,0.1176,0.0077,0.8695,0.4283,0.0282,0.3311,1.0780,1.0492,0.0650,0.1858,1.1333,1.1588,-0.0412,-0.3350,0.9424,1.2279
625,1,0.1424,0.2621,-0.1567,0.6172,0.8106,0.1637,0.0384,0.4467,0.2805,0.0213,0.2510,0.5197,0.5949,0.0303,0.0679,0.6623,0.7114,-0.0726,-0.3604,0.7013,0.6055
628,0,0.1817,0.5046,-0.0729,0.5843,0.8893,0.1823,0.0490,0.4536,0.2432,0.0300,-0.0858,0.7012,0.6753,0.0234,0.0403,0.6844,0.8311,-0.1179,-0.3028,0.6503,0.8124
629,0,0.4013,0.5124,-0.0867,0.5740,0.8056,0.2126,0.0562,0.3003,0.1806,0.1326,0.0337,0.2842,0.2801,0.0637,-0.1530,0.5008,0.5837,-0.0558,-0.2653,0.7411,0.8828
631,0,0.1784,0.5453,-0.0254,0.5723,0.8692,0.1567,0.0727,0.3603,0.1729,0.0562,0.0543,0.3637,0.3195,0.0009,-0.1130,0.4840,0.5710,-0.0186,-0.1025,0.5537,0.6839
632,1,0.2190,0.2956,-0.1398,0.5838,0.6487,0.1779,0.0350,0.3954,0.2391,0.0408,0.1546,0.6178,0.5958,0.0255,0.0996,0.5654,0.6605,-0.1200,-0.2098,0.5418,0.4267
633,1,0.2589,0.2023,-0.1350,0.6150,0.8893,0.1463,0.0757,0.7476,0.2906,0.0416,0.2888,1.1713,1.0393,0.0477,0.2246,1.1247,1.1570,-0.0370,-0.3338,0.8915,0.9936
636,0,0.2736,0.1788,-0.1259,0.5747,0.4229,0.0319,0.2260,0.9202,0.5776,-0.0221,0.2020,0.7177,0.5803,0.0233,0.1425,0.4969,0.4715,-0.0557,-0.2339,0.5498,0.2129
639,0,0.1491,0.2095,-0.1411,0.5868,0.5714,0.1511,0.0197,0.5546,0.2451,0.0299,0.2355,0.8721,0.7418,0.0568,0.2189,0.8924,0.8465,-0.0867,-0.1532,0.9032,0.9539
641,0,0.1751,0.3366,-0.1065,0.5635,0.6699,0.1942,-0.0448,0.3998,0.2046,0.0380,0.2211,0.4896,0.4670,-0.0030,0.2376,0.6216,0.6274,-0.0800,-0.2742,0.8458,0.7676
642,0,0.2546,0.3061,-0.1057,0.5797,0.6134,0.1664,-0.0541,0.5493,0.2783,0.0225,0.2454,0.7265,0.6269,0.0096,0.2544,0.8103,0.7826,-0.0730,-0.2055,0.9347,0.9510
645,1,0.2935,0.2135,-0.1351,0.5716,0.5087,0.0283,0.1932,0.7612,0.4205,-0.0517,0.1880,0.4909,0.4252,-0.0142,0.0764,0.3682,0.4048,-0.1077,-0.2566,0.6598,0.3635
646,0,0.1441,0.1531,-0.1215,0.6102,0.8391,-0.0799,0.3825,1.2860,0.6839,-0.0615,0.1440,1.0655,0.7296,0.0104,0.0732,0.7714,0.6070,-0.0623,-0.2750,0.7858,0.5722
648,1,0.2922,0.1170,-0.1760,0.5820,0.5109,0.1862,0.0972,0.3269,0.2612,0.0462,0.0736,0.3469,0.3765,0.0513,-0.0399,0.3080,0.3671,-0.0783,-0.2577,0.4814,0.1417
649,1,0.2645,0.0987,-0.1438,0.6253,0.7680,-0.0142,0.3117,1.0776,0.6445,-0.0641,0.1268,0.9576,0.7438,0.0153,0.0668,0.6850,0.5856,-0.0694,-0.2102,0.6232,0.3392
651,0,0.1467,0.1811,-0.1652,0.5332,0.4269,0.1953,0.0562,0.2928,0.2173,0.0724,0.0526,0.3669,0.3784,0.0329,-0.0010,0.4068,0.4308,-0.1309,-0.1613,0.5298,0.2465
652,0,0.2661,0.2389,-0.1339,0.5858,0.5445,0.1532,-0.0220,0.5241,0.2757,0.0356,0.2657,0.7551,0.7008,0.0404,0.2333,0.8053,0.7896,-0.1068,-0.1268,0.8354,0.8523
653,0,0.2214,0.2800,-0.1307,0.5858,0.7814,0.1451,-0.0203,0.5853,0.3053,0.0272,0.2844,0.7509,0.7043,0.0586,0.2259,0.8609,0.8513,-0.1089,-0.1580,0.9134,1.0509
654,1,0.2032,0.2664,-0.1336,0.5485,0.5879,0.1290,-0.0109,0.4221,0.2696,0.0026,0.2270,0.4388,0.4471,0.0106,0.1522,0.5388,0.5691,-0.1592,-0.1737,0.8075,0.6754
655,3,0.1427,0.2555,-0.1162,0.5729,0.7060,0.0692,0.0044,0.7651,0.3704,-0.0078,0.2811,0.7890,0.6692,0.0236,0.2036,0.8048,0.7367,-0.1078,-0.2003,0.8890,0.8662
657,3,0.1470,0.2448,-0.1285,0.6235,0.7866,0.1420,-0.0911,0.6379,0.3089,0.0057,0.2038,0.8188,0.6760,0.0488,0.2229,0.8974,0.7555,-0.1070,-0.2093,1.0008,1.0107
658,0,0.1965,0.2794,-0.1409,0.6014,0.8518,0.2002,-0.0957,0.5917,0.3208,0.0764,0.1385,0.7749,0.6539,0.1122,0.1642,0.8183,0.7311,-0.0733,-0.2036,0.8673,0.9265
659,0,0.4355,0.2914,-0.1446,0.5679,0.6725,0.2257,-0.0898,0.3608,0.2520,0.0887,0.0860,0.4569,0.4110,0.0865,0.0825,0.5433,0.5035,-0.1200,-0.1598,0.7714,0.5960
660,0,0.1408,0.2599,-0.1173,0.6253,0.8816,0.1566,-0.0461,0.7494,0.3507,0.0221,0.2449,0.9045,0.7448,0.0826,0.3826,0.9513,0.7783,-0.0957,0.0376,1.0550,1.0490
661,3,0.1412,0.2946,-0.1050,0.5896,0.8552,0.1575,-0.0486,0.5552,0.2901,0.0208,0.2286,0.5788,0.5490,0.0582,0.2927,0.7333,0.6399,-0.1701,0.0512,1.0040,0.9464
664,1,0.1970,0.1502,-0.1037,0.5815,0.6579,0.1154,0.2167,0.3756,0.2723,0.0396,0.0547,0.5279,0.4489,0.0431,-0.0638,0.5856,0.5273,-0.1775,-0.1122,0.7231,0.5645
665,0,0.1965,0.3180,0.3414,0.4607,0.7772,-0.2766,0.2864,1.5951,0.4298,-0.2099,0.4497,1.6545,0.7223,-0.1257,0.2951,1.5454,1.1724,-0.2639,0.0965,1.4492,0.2387
666,0,0.2130,0.2344,0.4116,0.4819,0.7721,-0.1891,0.1895,1.6436,0.6787,-0.1283,0.5097,1.7379,0.5508,-0.0854,0.2921,1.4941,1.2087,-0.2374,0.0429,1.6788,0.0273
667,0,0.1972,-0.0130,0.4339,0.4549,0.7726,0.1911,0.2117,1.6574,1.2598,0.2034,0.8226,1.8057,0.4353,0.0538,0.4945,1.3174,1.3711,-0.1616,0.0717,1.7956,0.2547
668,1,0.1745,-0.2034,0.4124,0.5203,0.6085,0.3858,0.3402,1.7150,1.5209,0.3742,1.0680,1.9696,0.4767,0.1073,0.6705,1.3035,1.5209,-0.1830,0.1387,1.9697,0.3400
669,3,0.3651,-0.2378,0.2428,0.3075,0.2270,0.2879,0.3885,1.3461,1.1073,0.2568,0.8182,1.5025,0.5254,0.0961,0.5314,1.0853,1.0890,-0.1473,0.0751,1.1959,0.1864
670,1,0.2953,-0.3898,0.1605,0.2385,-0.1123,0.1941,0.7175,1.4877,1.0055,0.2263,0.8790,1.4906,0.5416,-0.0648,0.7282,1.3528,0.9489,-0.2440,0.2921,0.3496,0.0946
671,3,0.2986,-0.5713,0.2289,0.4396,-0.2137,0.1787,1.0129,1.9697,1.3064,0.2981,1.2076,1.9464,0.3902,-0.2115,1.0805,1.7873,1.2881,-0.3846,0.5684,0.2264,0.0923
672,3,0.3327,-0.5469,0.2495,0.4436,-0.2036,0.1660,1.0914,1.9697,1.1698,0.2980,1.2540,1.9583,0.1975,-0.1735,1.1074,1.7621,1.2428,-0.3812,0.5547,0.2045,0.0702
674,0,0.2338,-0.4928,0.3078,0.3995,-0.1484,0.1666,1.1346,1.9697,1.2767,0.0923,1.2363,1.9294,1.0943,0.0537,1.0860,1.6048,1.1082,-0.2905,0.5492,0.1418,0.0832
675,0,0.1562,-0.4901,0.2910,0.3902,-0.1932,0.1653,1.1275,1.9697,1.2815,0.0676,1.2378,1.9124,1.2507,0.0876,1.1158,1.5756,1.1053,-0.2590,0.5765,0.1074,0.0626
676,0,0.2487,-0.4507,0.2558,0.4119,-0.0538,0.1641,1.1004,1.9697,1.2665,0.0568,1.2284,1.8956,1.2611,0.0982,1.1096,1.5727,1.0292,-0.2125,0.4754,0.1784,0.0156
677,0,0.6421,-0.4192,0.2538,0.4203,0.1431,0.1528,1.0404,1.9697,1.2299,0.0311,1.2051,1.8627,1.2626,0.0951,1.0460,1.5949,0.8630,-0.1762,0.2521,0.3389,-0.0298
678,0,0.6740,-0.4726,0.2797,0.3775,-0.0046,0.1004,0.9816,1.9697,1.1686,0.0023,1.2030,1.8287,1.2912,0.0842,1.0350,1.5670,0.7918,-0.2031,0.2158,0.2921,-0.0662
679,0,0.8676,-0.5185,0.2987,0.3436,-0.1763,0.0650,0.9761,1.9697,1.1178,-0.0059,1.2162,1.8159,1.3297,0.0875,1.0653,1.4790,0.7790,-0.2646,0.2892,0.1708,-0.0873
680,0,0.8296,-0.5273,0.3133,0.3341,-0.1998,0.0768,1.0016,1.9697,1.1434,-0.0019,1.2181,1.8257,1.3232,0.0734,1.0512,1.4456,0.7979,-0.3295,0.3384,0.1316,-0.0873
681,0,0.7975,-0.5153,0.3262,0.3345,-0.1640,0.1035,1.0320,1.9697,1.2164,-0.0003,1.2137,1.8596,1.2621,0.0451,1.0075,1.4796,0.8214,-0.3535,0.3633,0.1215,-0.0872
682,0,0.7723,-0.5098,0.3267,0.3350,-0.1418,0.1385,1.0423,1.9697,1.2546,0.0029,1.2057,1.8805,1.2333,0.0306,0.9837,1.4884,0.8258,-0.3535,0.3978,0.0921,-0.0851
683,0,0.7445,-0.5191,0.3137,0.3442,-0.1597,0.1627,1.0441,1.9697,1.2554,0.0088,1.2026,1.8823,1.2405,0.0395,0.9965,1.4370,0.8400,-0.3506,0.4598,0.0263,-0.0818
684,0,0.6827,-0.5246,0.3005,0.3550,-0.1780,0.1665,1.0432,1.9697,1.2725,0.0115,1.2012,1.8898,1.2277,0.0495,1.0172,1.3936,0.8636,-0.3524,0.5131,-0.0160,-0.0791
685,0,0.2419,-0.5229,0.2982,0.3570,-0.1880,0.1629,1.0347,1.9697,1.2776,0.0125,1.1995,1.8878,1.2304,0.0512,1.0249,1.3820,0.8744,-0.3496,0.5311,-0.0198,-0.0737
686,0,0.1711,-0.5010,0.3037,0.3696,-0.1575,0.1771,1.0767,1.9697,1.2545,0.0264,1.2111,1.8979,1.1840,0.0431,1.0058,1.4218,0.9051,-0.3699,0.5712,-0.0142,-0.0397
687,0,0.3752,-0.4813,0.3094,0.3890,-0.1224,0.1938,1.1302,1.9697,1.2349,0.0415,1.2220,1.9236,1.1119,0.0351,0.9719,1.4643,0.9499,-0.3860,0.6291,-0.0099,0.0107
688,0,0.2592,-0.4666,0.3172,0.4031,-0.0769,0.1927,1.1418,1.9697,1.2378,0.0425,1.2278,1.9478,1.0662,0.0417,0.9682,1.4880,0.9723,-0.3786,0.6700,0.0013,0.0464
689,0,0.2641,-0.4622,0.3220,0.3978,-0.0566,0.1940,1.1407,1.9697,1.2501,0.0389,1.2353,1.9643,1.0389,0.0476,0.9850,1.4753,0.9824,-0.3757,0.6632,-0.0043,0.0416
690,0,0.2057,-0.4954,0.3062,0.3767,-0.1423,0.1993,1.1108,1.9697,1.2733,0.0323,1.2101,1.9687,1.0649,0.0276,0.9338,1.4568,0.9979,-0.3855,0.6045,-0.0037,0.0238
691,0,0.3125,-0.3811,0.2731,0.5280,0.2634,0.1374,0.8262,1.9697,1.2484,-0.0389,0.9501,1.9061,1.1921,-0.0210,0.7352,1.5521,1.0672,-0.3175,0.6269,0.4076,0.5139
692,0,0.3180,-0.1985,0.2646,0.7742,0.9524,0.0353,0.7297,1.9697,1.3325,-0.1180,0.9278,1.8735,1.4067,-0.0315,0.8856,1.7120,1.2404,-0.1800,1.0017,1.0405,1.2613
693,0,0.1803,-0.1613,0.2668,0.8745,1.1745,0.0148,0.9077,1.9697,1.4330,-0.1187,1.1427,1.8971,1.5209,-0.0038,1.1678,1.7933,1.3437,-0.1219,1.3071,1.2826,1.5209
694,0,0.2280,-0.1769,0.2563,0.8956,1.1745,0.0387,0.9262,1.9697,1.4084,-0.1037,1.1417,1.8887,1.5163,0.0063,1.1529,1.7975,1.3317,-0.1230,1.2894,1.2863,1.5209
695,0,0.1867,-0.1709,0.2585,0.8930,1.1745,0.0449,0.8886,1.9697,1.3832,-0.1012,1.1006,1.8867,1.5164,0.0045,1.1161,1.8084,1.3044,-0.1242,1.2473,1.3004,1.5209
698,0,0.2260,-0.3660,0.2202,0.5449,0.2475,0.0464,0.8142,1.9697,1.4888,-0.0849,1.0341,1.9030,1.5169,-0.0147,0.8841,1.7139,1.2490,-0.2933,0.6719,0.5326,0.6164
699,0,0.3240,-0.0455,0.3039,0.6794,0.9121,0.0205,0.7811,1.9697,1.4641,-0.1043,1.0283,1.8958,1.5168,-0.0037,0.9366,1.8253,1.2716,-0.1653,0.9096,1.1547,1.3689
700,0,0.2169,0.0056,0.3159,0.6867,1.0314,0.0305,0.7958,1.9697,1.4425,-0.0971,1.0333,1.8999,1.5209,0.0034,0.9394,1.8541,1.2697,-0.1356,0.9538,1.3135,1.5209
701,0,0.2235,-0.0056,0.2988,0.7142,1.0576,0.0300,0.7647,1.9697,1.4094,-0.0935,1.0030,1.8948,1.5209,-0.0048,0.9602,1.8697,1.2540,-0.1403,0.9875,1.3382,1.5210
705,2,0.2211,-0.0408,0.2359,0.7154,1.0838,0.0644,0.8787,1.9697,1.3194,-0.0427,1.1284,1.8539,1.3908,0.0725,1.1878,1.7934,1.1851,-0.1419,0.7403,0.9611,0.8846
706,0,0.1837,-0.0169,0.2419,0.7205,1.1313,0.0740,0.8788,1.9697,1.3081,-0.0355,1.1195,1.8610,1.4163,0.0741,1.1699,1.8002,1.1721,-0.1578,0.7931,1.0172,0.9336
707,2,0.2757,-0.0260,0.2384,0.7245,1.1412,0.0816,0.8865,1.9697,1.3780,-0.0660,1.1081,1.8614,1.2572,0.0512,1.1461,1.8099,1.2262,-0.1618,1.0711,0.9209,0.8410
714,0,0.1514,-0.3162,0.2234,0.5198,0.4453,0.1091,0.9158,1.9697,1.5071,-0.0384,1.1184,1.8979,1.5209,0.0535,1.0425,1.7689,1.2384,-0.2521,0.8914,0.7139,0.7619
719,3,0.2568,-0.3591,0.2153,0.5359,0.5218,0.1412,0.9520,1.8932,1.0758,-0.0862,1.1646,1.8657,1.5087,0.0786,1.0759,1.7198,1.1544,-0.2302,0.7934,0.3565,0.2135
720,3,0.1776,-0.4535,0.1938,0.4943,0.3450,0.1550,0.9062,1.9027,1.1402,-0.0923,1.1120,1.8660,1.5155,0.0526,0.9950,1.6917,1.1750,-0.2615,0.6414,0.4620,0.3706
721,0,0.2564,-0.2058,0.2583,0.6057,0.7741,0.0854,0.8549,1.9697,1.4799,-0.0617,1.0767,1.8949,1.5175,0.0147,0.9862,1.7785,1.2277,-0.2021,0.8944,0.9711,1.0750
724,0,0.2172,-0.2351,0.2696,0.5814,0.6572,0.0753,0.8661,1.9697,1.4804,-0.0496,1.1020,1.8630,1.4914,0.0410,1.0268,1.7758,1.1868,-0.2241,0.8688,0.8145,0.8338
725,3,0.1561,-0.1808,0.2826,0.5965,0.8665,0.0786,0.9180,1.9697,1.4693,-0.0433,1.1415,1.8707,1.4989,0.0516,1.0635,1.7935,1.2045,-0.2245,0.8742,0.8888,0.9522
726,3,0.1460,-0.3694,0.2175,0.5192,0.4459,0.0880,0.8804,1.9697,1.4690,-0.0446,1.1284,1.8699,1.4550,0.0486,1.0254,1.7336,1.1804,-0.2288,0.6497,0.4426,0.3893
727,0,0.2537,-0.2277,0.2667,0.5817,0.6628,0.0902,0.9437,1.9697,1.4029,-0.0244,1.1854,1.8648,1.3584,0.0731,1.0891,1.7400,1.1224,-0.1635,0.6908,0.3360,0.2025
730,0,0.4550,-0.3276,0.2484,0.5086,0.3958,0.1213,0.9184,1.9697,1.3824,-0.0049,1.2152,1.8394,1.3367,0.0556,1.0537,1.7387,0.9916,-0.2240,0.5591,0.4095,0.0500
731,0,0.1939,-0.1843,0.2717,0.5656,0.7617,0.1196,0.9695,1.9697,1.3920,-0.0021,1.2515,1.8731,1.2582,0.0787,1.1393,1.8120,0.9702,-0.1884,0.7011,0.4684,0.0309
732,0,0.1646,-0.3899,0.2765,0.4337,0.2862,0.1302,0.9549,1.9697,1.3649,-0.0088,1.2433,1.8417,1.3498,0.0636,1.1018,1.7229,0.9856,-0.2675,0.6148,0.3016,-0.0620
733,0,0.6739,-0.2848,0.2781,0.5164,0.5153,0.1318,1.0086,1.9697,1.3862,0.0116,1.2654,1.8422,1.3174,0.0857,1.1279,1.7522,0.9455,-0.2242,0.7005,0.4049,-0.0681
735,0,0.1840,-0.4893,0.2605,0.3725,0.0271,0.1520,0.9088,1.9697,1.3549,-0.0189,1.2019,1.8208,1.4036,0.0493,1.0233,1.5999,0.9186,-0.2840,0.4312,0.2588,-0.0203
736,2,0.3008,-0.2520,0.2415,0.5438,0.5290,0.1315,0.8930,1.9697,1.3945,-0.0439,1.0985,1.8497,1.4580,0.0354,0.9892,1.6642,1.0860,-0.1914,0.8412,0.7340,0.5766
737,0,0.3804,-0.0650,0.2071,0.7545,1.1201,0.0894,0.9822,1.9688,1.4431,-0.0985,1.1327,1.8776,1.2800,0.0533,1.1031,1.7647,1.3478,-0.0972,1.3569,1.1913,1.2328
740,0,0.3637,-0.0119,0.0364,0.1637,0.2494,0.0156,0.2336,0.4183,0.3005,-0.0106,0.2654,0.4027,0.3230,0.0151,0.2578,0.3796,0.2896,-0.0136,0.2895,0.2806,0.2822
741,0,0.2020,-0.0354,0.1049,0.4423,0.7078,0.0595,0.6527,1.1887,0.8359,-0.0193,0.7406,1.1399,0.9178,0.0551,0.7063,1.0929,0.7967,-0.0402,0.7587,0.7617,0.7041
742,2,0.2541,-0.0235,0.0686,0.2786,0.4584,0.0439,0.4191,0.7704,0.5354,-0.0086,0.4753,0.7372,0.5948,0.0400,0.4484,0.7133,0.5071,-0.0265,0.4692,0.4810,0.4219
743,2,0.2045,-0.0207,0.0261,0.3715,-0.0397,0.0742,0.4572,0.7174,0.4349,0.0375,0.4788,0.6759,0.5538,0.0794,0.4506,0.6527,0.4840,0.0041,0.4107,0.4403,0.4984
746,0,0.4816,-0.0030,0.0412,0.1740,0.2626,0.0231,0.2593,0.4677,0.3189,-0.0034,0.3256,0.4321,0.3605,0.0395,0.3446,0.3253,0.3611,-0.1112,0.2216,0.2478,0.3611
747,0,0.5579,-0.0119,0.1256,0.5266,0.8211,0.0676,0.8104,1.4524,0.9841,-0.0119,1.0138,1.3434,1.1210,0.1221,1.0671,1.0017,1.1216,-0.3084,0.6570,0.7578,1.1216
748,0,0.3349,-0.0184,0.0901,0.3723,0.5880,0.0483,0.5853,1.0444,0.7037,-0.0088,0.7300,0.9660,0.8070,0.0878,0.7663,0.7174,0.8070,-0.2047,0.4522,0.5435,0.8070
749,0,0.4121,-0.0095,0.0056,0.0197,0.0295,0.0038,0.0343,0.0597,0.0385,-0.0003,0.0418,0.0547,0.0466,0.0051,0.0438,0.0410,0.0466,-0.0075,0.0167,0.0336,0.0466
750,0,0.3492,0.0000,0.0000,0.0000,0.0000,0.0000,0.0000,0.0000,0.0000,0.0000,0.0000,0.0000,0.0000,0.0000,0.0000,0.0000,0.0000,0.0000,0.0000,0.0000,0.0000
751,2,0.2431,0.0053,0.0343,0.1057,0.1655,0.0236,0.1596,0.3334,0.2267,0.0102,0.1440,0.2482,0.2574,0.0236,0.1761,0.3102,0.1720,-0.0050,0.0932,0.1645,0.1372
754,0,0.2494,-0.1284,0.3336,0.5422,0.6950,0.1012,0.7539,1.9697,1.3353,0.0225,0.7652,1.4637,1.5209,0.0753,0.8370,1.7874,0.9661,-0.1103,0.2900,0.8391,0.7582
755,3,0.1426,-0.1658,0.3542,0.5369,0.6677,0.0411,0.8330,1.9697,1.3333,-0.0013,0.8483,1.4615,1.5209,0.0955,0.9287,1.8001,1.0203,-0.1032,0.2905,0.8602,0.7904
757,0,0.1505,-0.2743,0.2770,0.6148,0.4558,0.0773,0.8278,1.9697,1.2822,-0.0784,0.9081,1.4554,1.5209,0.0575,0.9312,1.7425,0.9388,-0.1636,0.3248,0.5615,0.2131
759,0,0.3635,-0.3987,0.2502,0.4925,0.1690,0.0845,0.7904,1.9697,1.2338,-0.0783,0.9083,1.4554,1.5209,0.0585,0.8875,1.6958,0.8801,-0.2176,0.2500,0.3223,-0.0308
760,0,0.6915,-0.0555,0.3432,0.5389,0.6905,0.0770,0.8364,1.9697,1.2908,-0.0782,0.9094,1.4562,1.5209,0.0996,1.0482,1.8612,0.8261,-0.0908,0.5405,0.4337,0.0519
763,2,0.2356,0.0000,0.0000,0.0000,0.0000,0.0000,0.0000,0.0000,0.0000,0.0000,0.0000,0.0000,0.0000,0.0000,0.0000,0.0000,0.0000,0.0000,0.0000,0.0000,0.0000
764,0,0.2390,0.0053,0.0355,0.0673,0.0894,0.0059,0.0516,0.1942,0.0662,0.0097,0.0809,0.1659,0.1114,0.0119,0.0698,0.1528,0.0963,0.0012,0.0478,0.0920,0.0945
765,0,0.2647,0.0744,0.2370,0.3861,0.4326,0.0090,0.3007,0.7178,0.2365,0.0419,0.4338,0.5308,0.3122,-0.0225,0.3232,0.4870,0.3288,-0.0305,0.2501,0.3014,0.2565
766,0,0.1913,0.0447,0.4329,0.5505,0.7597,0.0863,0.4113,0.5106,0.2682,0.1535,0.5503,0.3210,0.1698,-0.1239,0.3787,0.3080,0.2268,-0.0591,0.3017,0.2031,0.1183
767,1,0.2297,-0.1394,0.4642,0.4084,0.9758,0.2185,0.1629,-0.0567,0.1498,0.2911,0.2337,-0.0875,-0.0747,-0.1856,0.1875,-0.0698,-0.0493,-0.0559,0.1616,-0.0500,-0.0873
768,1,0.1494,-0.2346,0.4720,0.3788,1.1465,0.2594,0.0011,-0.0870,0.1101,0.3447,0.0953,-0.0873,-0.0873,-0.1750,0.2052,-0.0873,-0.0873,-0.0402,0.2055,-0.0824,-0.0873
769,0,0.2583,-0.1771,0.4470,0.5378,1.1745,0.1712,0.4538,-0.0704,0.1871,0.2578,0.5668,-0.0873,-0.0873,-0.1106,0.7026,-0.0873,-0.0391,-0.0297,0.6915,-0.0597,-0.0873
770,0,0.2418,-0.0972,0.3905,0.7118,1.1732,0.0571,0.8903,-0.0550,0.2359,0.1283,0.9828,-0.0873,-0.0873,-0.1163,1.0387,-0.0873,0.0084,-0.0799,1.0085,-0.0553,-0.0873
771,2,0.1734,-0.1012,0.3568,0.7106,1.1668,0.0434,0.5415,-0.0715,0.1020,0.1284,0.5791,-0.0873,-0.0873,-0.2682,0.5568,-0.0873,-0.0246,-0.1898,0.4364,0.0248,-0.0873
773,0,0.3291,-0.0767,0.3450,0.7042,1.1685,0.0338,0.6024,-0.0873,0.1262,0.1259,0.6543,-0.0873,-0.0873,-0.1795,0.6555,-0.0740,-0.0536,-0.1130,0.5303,0.0283,-0.0873
774,0,0.3311,-0.0397,0.3436,0.7363,1.1741,-0.0045,0.9892,-0.0873,0.2037,0.0664,1.0812,-0.0873,-0.0873,-0.0218,1.1235,-0.0872,-0.0351,0.0018,1.0885,-0.0874,-0.0873
775,0,0.2022,-0.0995,0.4031,0.6112,1.1743,0.0529,0.6481,-0.0873,0.1463,0.1443,0.7419,-0.0873,-0.0873,-0.0699,0.7709,-0.0873,-0.0506,0.0001,0.7419,-0.0873,-0.0873
776,0,0.1723,-0.2131,0.4560,0.4288,1.1743,0.1650,0.1238,-0.0873,0.0765,0.2805,0.2230,-0.0873,-0.0873,-0.1582,0.2851,-0.0873,-0.0873,-0.0354,0.2598,-0.0873,-0.0873
779,0,0.4081,-0.2991,0.4336,1.0123,1.1745,0.1025,-0.0376,-0.0873,0.0655,0.2348,0.0906,-0.0873,-0.0873,-0.1655,0.2213,-0.0873,-0.0873,-0.0300,0.1987,-0.0873,-0.0873
780,0,0.3218,-0.2482,0.4198,1.1128,1.1745,0.1322,-0.0286,-0.0873,0.0549,0.2581,0.0923,-0.0873,-0.0873,-0.1655,0.2446,-0.0873,-0.0873,-0.0319,0.2300,-0.0873,-0.0873
781,0,0.3116,-0.2456,0.3918,1.1754,1.1745,0.1320,0.2142,-0.0785,0.1106,0.2426,0.3394,-0.0873,-0.0873,-0.1599,0.4683,-0.0873,-0.0760,-0.0615,0.4465,-0.0782,-0.0873
782,0,0.4817,-0.2536,0.3555,1.2489,1.1745,-0.0211,0.7606,0.1035,0.1814,0.0844,0.9742,-0.0808,0.0392,-0.1240,0.9926,-0.0017,0.0762,-0.1153,0.9479,0.0510,-0.0852
783,0,0.2588,-0.2551,0.3543,1.2307,1.1745,-0.0239,0.7876,0.2129,0.2040,0.0815,1.0498,-0.0808,0.0499,-0.1610,1.0663,0.0099,0.1060,-0.1410,1.0446,0.0581,-0.0852
785,0,0.3789,-0.1828,0.4010,1.1258,1.1745,0.1263,0.2869,-0.0873,0.2023,0.2342,0.4227,-0.0873,-0.0865,-0.1546,0.4960,-0.0861,-0.0389,-0.0605,0.4734,-0.0821,-0.0854
786,0,0.4043,-0.1295,0.3285,1.2393,1.1745,-0.0684,0.8299,-0.0873,0.2832,0.0218,0.9847,-0.0873,-0.0728,-0.0777,0.9234,-0.0675,0.0828,-0.0571,0.8460,-0.0355,-0.0718
787,0,0.2636,-0.0841,0.3530,1.1888,1.1745,-0.0444,0.7711,-0.0873,0.2337,0.0502,0.9108,-0.0873,-0.0736,-0.1162,0.8169,-0.0687,0.0425,-0.0720,0.7593,-0.0404,-0.0737
788,0,0.2459,-0.0288,0.4471,1.0312,1.1745,0.1336,0.2407,-0.0873,0.1317,0.2498,0.3546,-0.0873,-0.0873,-0.1792,0.2948,-0.0873,-0.0791,-0.0547,0.2736,-0.0870,-0.0873
789,0,0.4650,-0.0088,0.4054,1.0995,1.1745,0.0299,0.4529,-0.0873,0.1253,0.1365,0.5747,-0.0873,-0.0873,-0.1377,0.4813,-0.0873,-0.0426,-0.0367,0.4452,-0.0711,-0.0710
790,0,0.6404,-0.0284,0.3204,1.2232,1.1745,-0.1360,0.9036,-0.0873,0.1557,-0.0439,1.0392,-0.0873,-0.0873,-0.0945,0.9035,-0.0873,-0.0001,-0.0254,0.8695,-0.0705,-0.0666
791,0,0.2141,-0.0313,0.3737,1.1107,1.1745,0.0133,0.6022,-0.0873,0.1536,0.1177,0.7253,-0.0873,-0.0873,-0.1585,0.6302,-0.0873,-0.0448,-0.0452,0.6438,-0.0866,-0.0828
792,0,0.1757,-0.0168,0.4477,0.9820,1.1745,0.1857,0.1729,-0.0873,0.1423,0.3047,0.2838,-0.0873,-0.0873,-0.2054,0.2570,-0.0873,-0.0873,-0.0595,0.2868,-0.0873,-0.0873
793,0,0.2156,-0.0353,0.3921,1.0914,1.1745,0.1108,0.4588,-0.0873,0.1587,0.2154,0.5704,-0.0873,-0.0873,-0.1019,0.5657,-0.0654,0.0050,-0.0180,0.5334,-0.0777,-0.0666
794,0,0.3542,-0.0650,0.3232,1.2231,1.1745,0.0161,0.8583,-0.0873,0.1301,0.1027,0.9619,-0.0873,-0.0873,0.0059,0.9339,-0.0623,0.0586,0.0239,0.8484,-0.0765,-0.0590
795,0,0.3425,-0.0754,0.3650,1.2224,1.1745,0.0838,0.4147,-0.0873,0.0723,0.1862,0.5259,-0.0873,-0.0873,-0.0228,0.5034,-0.0842,-0.0337,0.0596,0.4509,-0.0861,-0.0797
796,0,0.4207,-0.0933,0.3910,1.2139,1.1745,0.1013,0.1584,-0.0873,0.1008,0.2146,0.2949,-0.0873,-0.0873,-0.0424,0.2695,-0.0873,-0.0871,0.0767,0.2299,-0.0693,-0.0868
797,0,0.5350,-0.0911,0.3476,1.2423,1.1745,-0.0189,0.6311,-0.0873,0.1596,0.0799,0.7819,-0.0873,-0.0873,-0.0275,0.7313,-0.0873,-0.0607,0.0308,0.6626,-0.0416,-0.0867
798,0,0.1631,-0.0813,0.3747,1.1979,1.1745,0.0788,0.4574,-0.0873,0.1279,0.1702,0.5882,-0.0873,-0.0873,-0.0796,0.5590,-0.0873,-0.0609,0.0079,0.5125,-0.0596,-0.0872
800,0,0.3203,-0.0743,0.3604,1.2019,1.1745,-0.0208,0.5824,-0.0120,0.2596,0.0682,0.7799,-0.0873,-0.0873,-0.0906,0.6703,-0.0873,-0.0663,-0.0149,0.6069,-0.0192,-0.0873
801,2,0.3334,-0.0786,0.3251,1.2054,1.1745,-0.1033,0.7657,-0.0139,0.3236,-0.0134,0.9662,-0.0873,-0.0873,-0.0538,0.8455,-0.0873,-0.0635,-0.0004,0.7669,-0.0161,-0.0873
802,0,0.4435,-0.1243,0.3819,1.1056,1.1745,0.0704,0.2069,-0.0760,0.2014,0.1805,0.3481,-0.0873,-0.0873,-0.0713,0.3553,-0.0873,-0.0844,0.0391,0.3434,-0.0812,-0.0873
803,2,0.2533,-0.1176,0.3811,1.1136,1.1745,0.0551,0.2507,-0.0525,0.2014,0.1646,0.4080,-0.0873,-0.0873,-0.0596,0.4123,-0.0873,-0.0582,0.0343,0.3731,-0.0665,-0.0849
804,2,0.2887,-0.0532,0.3270,1.1776,1.1745,-0.1089,0.7985,-0.0307,0.3168,-0.0091,0.9925,-0.0873,-0.0824,-0.0291,0.9299,-0.0867,0.0430,-0.0028,0.8275,-0.0302,-0.0755
805,0,0.2239,-0.0629,0.3068,1.1970,1.1743,-0.1346,0.8061,-0.0523,0.3209,-0.0317,0.9772,-0.0873,-0.0659,-0.0560,0.8917,-0.0861,0.0433,-0.0117,0.7959,-0.0482,-0.0778
806,0,0.1732,-0.2572,0.3223,1.1799,1.1742,-0.0220,0.3849,-0.0741,0.1330,0.0921,0.5256,-0.0873,-0.0708,-0.1056,0.4501,-0.0866,-0.0579,-0.0018,0.4293,-0.0846,-0.0872
807,2,0.2936,-0.3565,0.3626,1.1055,1.1745,0.0621,0.3212,-0.0088,0.0594,0.1851,0.5022,-0.0873,-0.0873,-0.0576,0.4749,-0.0873,-0.0620,0.0290,0.4666,-0.0693,-0.0750
808,0,0.2773,-0.2764,0.3827,1.0505,1.1745,0.0364,0.6993,0.1880,0.1121,0.1755,0.9784,-0.0873,-0.0843,0.0880,0.9393,-0.0873,0.0125,0.0955,0.8405,-0.0066,-0.0269
809,2,0.2084,-0.2617,0.3879,1.0359,1.1745,0.0300,0.7682,0.2597,0.1239,0.1702,1.0848,-0.0873,-0.0842,0.0989,1.0105,-0.0873,0.0018,0.0973,0.8975,0.0038,-0.0199
812,2,0.2247,-0.2994,0.3512,1.0278,1.1745,0.1173,0.6727,-0.0797,0.2345,0.2224,0.8229,-0.0873,-0.0873,0.0099,0.7584,-0.0873,-0.0031,0.0638,0.5948,0.0620,-0.0222
813,0,0.2769,-0.2353,0.2850,1.1813,1.1745,0.0613,1.0111,-0.0764,0.2325,0.1520,1.1568,-0.0873,-0.0873,0.1094,1.0569,-0.0873,0.0235,0.1151,0.7760,0.2005,0.0268
814,0,0.2278,-0.1778,0.3471,1.1557,1.1745,0.1283,0.4736,-0.0840,0.1763,0.2342,0.6128,-0.0873,-0.0873,-0.0032,0.6079,-0.0873,-0.0544,0.0736,0.4496,0.0990,-0.0381
815,0,0.1678,-0.1413,0.4139,1.1264,1.1745,0.1931,0.0248,-0.0873,0.1371,0.3156,0.1606,-0.0873,-0.0873,-0.1168,0.2379,-0.0873,-0.0873,0.0163,0.2102,-0.0408,-0.0873
816,0,0.3974,-0.0913,0.3562,1.1812,1.1745,0.0876,0.5047,-0.0873,0.1428,0.1894,0.6305,-0.0873,-0.0873,-0.0801,0.6577,-0.0873,-0.0364,0.0398,0.5196,-0.0191,-0.0517
817,0,0.5999,-0.0354,0.2664,1.2313,1.1745,-0.0047,1.0636,-0.0873,0.1595,0.0682,1.1799,-0.0873,-0.0873,-0.0051,1.1520,-0.0873,0.0088,0.0981,0.8359,0.0912,0.0212
818,0,0.5294,-0.0137,0.3024,1.1516,1.1745,0.0489,0.8472,-0.0873,0.1141,0.1391,0.9620,-0.0873,-0.0873,-0.0208,0.9400,-0.0873,-0.0421,0.0783,0.6385,0.0754,-0.0003
819,0,0.2467,0.0693,0.4124,0.9959,1.1745,0.1435,0.2631,-0.0873,0.0353,0.2627,0.3783,-0.0873,-0.0873,-0.1272,0.4383,-0.0873,-0.0872,-0.0213,0.2638,-0.0035,-0.0732
820,0,0.2021,0.1059,0.4601,0.9209,1.1745,0.1856,-0.0249,-0.0873,0.0277,0.3137,0.0941,-0.0873,-0.0873,-0.1967,0.2200,-0.0873,-0.0873,-0.0735,0.1009,-0.0177,-0.0873
821,0,0.2996,0.0543,0.4446,0.9629,1.1745,0.1908,0.0006,-0.0873,0.0467,0.3174,0.1171,-0.0873,-0.0873,-0.1969,0.2325,-0.0873,-0.0873,-0.0664,0.1013,-0.0103,-0.0873
822,0,0.7076,0.0342,0.4362,0.9895,1.1745,0.1937,0.0150,-0.0873,0.0581,0.3194,0.1312,-0.0873,-0.0873,-0.1918,0.2334,-0.0873,-0.0873,-0.0575,0.0980,-0.0099,-0.0873
823,0,0.7910,0.0232,0.4242,1.0286,1.1745,0.1962,0.0164,-0.0873,0.0741,0.3219,0.1349,-0.0873,-0.0873,-0.1798,0.2354,-0.0873,-0.0873,-0.0411,0.0839,0.0136,-0.0873
824,0,0.6147,-0.0034,0.4108,1.0752,1.1745,0.1955,0.0272,-0.0873,0.0987,0.3215,0.1494,-0.0873,-0.0873,-0.1678,0.2533,-0.0873,-0.0873,-0.0268,0.0831,0.0391,-0.0873
825,0,0.1603,-0.0441,0.4110,1.1055,1.1745,0.1933,0.0441,-0.0873,0.1114,0.3188,0.1725,-0.0873,-0.0873,-0.1582,0.2969,-0.0873,-0.0873,-0.0197,0.1356,0.0076,-0.0873
828,0,0.3400,-0.1198,0.4133,1.1621,1.1745,0.1800,0.0195,-0.0873,0.1138,0.3082,0.1537,-0.0873,-0.0873,-0.1093,0.2792,-0.0873,-0.0873,0.0450,0.1345,-0.0873,-0.0873
829,0,0.5908,-0.1005,0.4022,1.1406,1.1745,0.1693,-0.0014,-0.0873,0.1022,0.2983,0.1295,-0.0873,-0.0873,-0.0779,0.2383,-0.0873,-0.0873,0.0857,0.0656,-0.0873,-0.0873
830,0,0.2140,-0.0868,0.4108,1.1198,1.1745,0.1657,0.0203,-0.0873,0.1145,0.2958,0.1514,-0.0873,-0.0873,-0.0067,0.3040,-0.0873,-0.0873,0.1281,0.1400,-0.0873,-0.0873
833,0,0.6038,-0.1255,0.4377,1.1141,1.1745,0.1706,0.0372,-0.0873,0.1612,0.3015,0.1787,-0.0873,-0.0873,0.0362,0.4288,-0.0873,-0.0873,0.1245,0.3463,-0.0873,-0.0873
834,0,0.4374,-0.1363,0.4259,1.1179,1.1745,0.1676,0.0598,-0.0873,0.1530,0.2968,0.2009,-0.0873,-0.0873,-0.0030,0.4443,-0.0873,-0.0873,0.0916,0.3747,-0.0872,-0.0872
835,0,0.3333,-0.1471,0.4136,1.1284,1.1745,0.1640,0.0848,-0.0873,0.1552,0.2912,0.2252,-0.0873,-0.0873,-0.0386,0.4664,-0.0873,-0.0873,0.0585,0.4034,-0.0791,-0.0813
836,0,0.5882,-0.1510,0.4070,1.1354,1.1745,0.1627,0.1033,-0.0873,0.1500,0.2882,0.2416,-0.0873,-0.0873,-0.0712,0.4888,-0.0873,-0.0873,0.0284,0.4204,-0.0426,-0.0736
837,0,0.2247,-0.1364,0.4146,1.1317,1.1745,0.1861,0.1494,-0.0873,0.1213,0.3052,0.2859,-0.0873,-0.0873,-0.1224,0.5122,-0.0873,-0.0873,-0.0245,0.4467,0.0142,-0.0537
839,0,0.3906,-0.0267,0.3666,1.1845,1.1745,-0.1251,0.8210,-0.0873,0.2143,-0.0192,0.9712,-0.0873,-0.0873,-0.0247,1.1394,-0.0873,-0.0698,-0.0501,0.9767,0.0518,0.0761
840,0,0.3149,-0.0314,0.3670,1.1885,1.1745,-0.1150,0.8145,-0.0873,0.2297,-0.0095,0.9708,-0.0873,-0.0873,0.0179,1.0866,-0.0873,-0.0742,0.0033,0.9297,0.0192,0.0789
841,0,0.2425,-0.0543,0.4068,1.1137,1.1745,0.0686,0.4543,-0.0873,0.1748,0.1851,0.5937,-0.0873,-0.0873,-0.0333,0.6602,-0.0873,-0.0760,0.0559,0.6714,-0.0543,-0.0156
842,0,0.2847,-0.0549,0.3968,1.1280,1.1745,0.0606,0.4772,0.0749,0.1801,0.1837,0.6853,-0.0507,0.0192,-0.1256,0.6363,0.1039,0.1253,-0.0423,0.6796,0.0915,0.0894
843,0,0.1685,-0.0642,0.3151,1.1348,1.1745,-0.0789,0.4989,0.9082,0.3140,-0.0183,0.7728,0.6907,0.4850,-0.0923,0.6760,0.8683,0.5918,-0.0956,0.6340,0.6667,0.7359
844,2,0.2252,-0.0665,0.2713,1.0352,1.1745,-0.1096,0.2016,1.7022,0.5001,-0.0981,0.4578,1.5294,0.9997,-0.0243,0.4607,1.5708,0.9290,-0.0337,0.4416,1.1410,1.3146
845,0,0.1802,-0.0242,0.2499,0.9802,1.1745,-0.1183,0.1811,1.7774,0.5741,-0.1122,0.4142,1.6239,1.1196,-0.0207,0.4472,1.6577,0.9675,-0.0242,0.4315,1.1905,1.3952
846,0,0.2356,0.0670,0.1518,0.9011,1.1745,-0.1642,0.1202,1.7403,0.6130,-0.1666,0.3528,1.5882,1.0824,-0.0607,0.4494,1.6122,0.9683,-0.0450,0.4485,1.1388,1.4319
847,0,0.3314,0.3052,0.0452,0.7328,1.1745,-0.1233,0.0614,1.2958,0.5523,-0.2095,0.1891,1.2078,0.8155,-0.1319,0.4881,1.5570,1.0017,-0.0902,0.5280,1.0689,1.4306
848,2,0.2156,0.5125,0.0122,0.5695,1.1657,0.0867,0.0117,0.4511,0.3180,-0.1557,0.1843,0.3995,0.3071,-0.2292,0.4701,1.4694,0.9906,-0.1473,0.5485,1.0654,1.1608
849,2,0.3059,0.4638,-0.0345,0.5444,1.0525,0.0090,0.1023,0.7265,0.3432,-0.1814,0.3561,0.6395,0.4385,-0.2550,0.4653,1.4320,0.9434,-0.1577,0.5503,1.0813,1.0656
850,2,0.2995,0.4593,-0.0560,0.5254,0.9926,-0.1514,0.2332,1.2768,0.4823,-0.2765,0.2701,1.2359,0.7907,-0.2364,0.4895,1.4241,0.9522,-0.1396,0.5775,1.0259,1.2524
851,0,0.2905,0.5797,-0.0239,0.4538,1.1042,0.1142,0.0518,0.5441,0.3279,-0.2002,0.0705,0.5451,0.3731,-0.2688,0.4264,1.4318,0.9885,-0.1568,0.5280,1.0730,1.1546
852,0,0.3737,0.6094,-0.0167,0.4355,1.1657,0.3398,-0.1263,-0.0805,0.1740,-0.0879,0.0186,-0.0826,-0.0367,-0.2980,0.3482,1.4638,0.9815,-0.1753,0.4509,1.1726,0.9546
853,0,0.5195,0.5772,-0.0312,0.5083,1.1673,0.3101,-0.1000,-0.0873,0.1836,-0.0802,0.0430,-0.0873,-0.0418,-0.3090,0.2961,1.5026,0.9831,-0.1819,0.3989,1.2081,0.9235
854,0,0.7016,0.5653,-0.0348,0.5653,1.1745,0.3046,-0.0716,-0.0873,0.1876,-0.0874,0.0342,-0.0873,-0.0416,-0.3107,0.2481,1.5269,0.9867,-0.1765,0.3580,1.2132,0.8987
855,0,0.6086,0.5760,-0.0326,0.5532,1.1745,0.3562,-0.0837,-0.0873,0.1621,-0.0815,0.0070,-0.0873,-0.0579,-0.3100,0.2584,1.4968,0.9859,-0.1727,0.3759,1.1782,0.8636
856,0,0.8503,0.5719,-0.0447,0.5434,1.1745,0.4110,-0.0974,-0.0873,0.1380,-0.0608,0.0083,-0.0873,-0.0729,-0.3106,0.3088,1.4432,0.9930,-0.1753,0.4320,1.1237,0.8414
857,0,0.7661,0.5724,-0.0541,0.5324,1.1745,0.4218,-0.0965,-0.0873,0.1330,-0.0474,0.0284,-0.0873,-0.0760,-0.3058,0.3270,1.4297,0.9806,-0.1719,0.4528,1.1040,0.8334
858,0,0.3769,0.5780,-0.0577,0.5198,1.1745,0.4132,-0.0846,-0.0873,0.1475,-0.0661,0.0576,-0.0873,-0.0648,-0.3069,0.3244,1.4297,0.9666,-0.1736,0.4514,1.1012,0.8275
859,3,0.2677,0.5699,-0.0732,0.5262,1.1745,0.4213,-0.1134,-0.0873,0.1488,-0.0741,0.1024,-0.0873,-0.0399,-0.3156,0.3632,1.3767,1.0092,-0.1847,0.4991,1.0398,0.8372
860,0,0.1709,0.5609,-0.0941,0.5338,1.1745,0.4279,-0.1659,-0.0873,0.1288,-0.0565,0.1436,-0.0873,-0.0097,-0.3244,0.4130,1.3050,1.0774,-0.1944,0.5615,0.9555,0.8627
861,0,0.4202,0.5594,-0.1026,0.5322,1.1745,0.4263,-0.1747,-0.0873,0.1196,-0.0444,0.1593,-0.0873,0.0050,-0.3258,0.4285,1.2759,1.1038,-0.1950,0.5824,0.9201,0.8753
862,1,0.3961,0.5528,-0.1073,0.5354,1.1745,0.4261,-0.1599,-0.0873,0.1258,-0.0467,0.1682,-0.0873,0.0118,-0.3256,0.4377,1.2643,1.1123,-0.1950,0.5931,0.9101,0.8764
863,2,0.1686,0.5505,-0.1075,0.5431,1.1745,0.4209,-0.1313,-0.0873,0.1466,-0.0495,0.1675,-0.0873,0.0065,-0.3251,0.4402,1.2670,1.1135,-0.1958,0.5944,0.9164,0.8770
864,0,0.3445,0.5488,-0.0840,0.5960,1.1745,0.4052,-0.0909,-0.0873,0.1725,-0.1009,0.0855,-0.0873,-0.0219,-0.3472,0.3746,1.3537,1.0908,-0.2165,0.5111,1.0528,0.8296
865,0,0.2066,0.5392,-0.0711,0.6566,1.1745,0.3966,-0.0673,-0.0873,0.1779,-0.1534,0.0467,-0.0873,-0.0294,-0.3700,0.3319,1.4146,1.0942,-0.2359,0.4654,1.1321,0.7941
868,0,0.2483,0.6434,-0.0429,0.4446,0.9158,0.4105,-0.0579,-0.0854,0.1847,-0.0947,0.1300,-0.0873,0.0018,-0.3034,0.2973,1.3858,0.9584,-0.1617,0.4701,1.0247,0.8611
869,1,0.1547,0.6503,-0.0326,0.5175,0.5170,0.3956,-0.0699,-0.0865,0.1850,-0.1129,0.0886,-0.0873,-0.0016,-0.3130,0.2807,1.3999,0.9289,-0.1627,0.4598,1.0483,0.8214
870,1,0.2926,0.6736,-0.0253,0.5188,0.2499,0.4211,-0.0701,-0.0866,0.1676,-0.0847,0.1155,-0.0873,0.0026,-0.2978,0.3151,1.3262,0.9672,-0.1476,0.5045,0.9485,0.8533
871,1,0.1757,0.6787,-0.0244,0.5118,0.1628,0.4445,-0.0606,-0.0873,0.1572,-0.0531,0.1485,-0.0873,-0.0005,-0.2821,0.3396,1.2895,0.9896,-0.1314,0.5361,0.8918,0.8856
872,0,0.2817,0.6739,-0.0266,0.5162,0.1927,0.4333,-0.0475,-0.0830,0.1675,-0.0501,0.1579,-0.0873,-0.0134,-0.2806,0.3183,1.3529,0.9287,-0.1316,0.5168,0.9324,0.8821
873,0,0.4785,0.6510,-0.0382,0.5341,0.2980,0.4025,-0.0434,-0.0755,0.1806,-0.0726,0.1643,-0.0873,-0.0309,-0.2997,0.2861,1.4645,0.8149,-0.1453,0.4722,1.0695,0.8037
874,0,0.2000,0.6489,-0.0452,0.5275,0.2514,0.3962,-0.0493,-0.0729,0.1864,-0.0813,0.1799,-0.0873,-0.0246,-0.3088,0.3035,1.4748,0.7738,-0.1484,0.4880,1.0940,0.7805
875,0,0.2600,0.6784,-0.0386,0.4925,0.0871,0.4400,-0.0677,-0.0804,0.1709,-0.0469,0.1880,-0.0873,-0.0051,-0.2962,0.3455,1.3930,0.8237,-0.1381,0.5430,0.9829,0.8617
876,0,0.3527,0.6798,-0.0416,0.4865,0.0576,0.4391,-0.0144,-0.0547,0.1631,-0.0211,0.2537,-0.0786,0.0162,-0.2864,0.3625,1.3735,0.8310,-0.1308,0.5623,0.9551,0.8929
877,2,0.2369,0.6688,-0.0432,0.5158,0.0681,0.1421,0.2721,0.4800,0.2096,-0.1024,0.5409,0.3659,0.1868,-0.3091,0.3645,1.3685,0.8302,-0.1543,0.5586,0.9837,0.8555
878,2,0.2854,0.6662,-0.0402,0.5463,0.0239,-0.2143,0.5780,1.0949,0.2486,-0.2190,0.7635,0.8618,0.3501,-0.3347,0.3728,1.3256,0.8668,-0.1811,0.5630,0.9730,0.8437
879,0,0.2245,0.6594,-0.0388,0.5538,0.0441,-0.2681,0.5957,1.1825,0.2642,-0.2575,0.6873,0.9732,0.4048,-0.3271,0.3691,1.3171,0.8798,-0.1760,0.5541,0.9637,0.8626
880,0,0.2185,0.5171,-0.0242,0.6036,0.4580,-0.2355,0.3415,1.4760,0.5996,-0.2682,0.4371,1.3395,0.8454,-0.2448,0.4048,1.4531,0.9712,-0.1392,0.5576,1.0632,1.0507
881,0,0.2138,0.3565,0.0367,0.6923,0.9911,-0.2192,0.2930,1.8106,0.6318,-0.2475,0.3705,1.7350,1.2241,-0.1243,0.5279,1.6484,1.0910,-0.1013,0.6364,1.1908,1.3204
882,2,0.2440,0.3305,0.0906,0.7505,1.1468,-0.1873,0.4268,1.8075,0.3082,-0.2128,0.4580,1.7979,1.1996,-0.0834,0.5961,1.7004,1.0903,-0.0896,0.6848,1.2284,1.3567
883,2,0.1922,0.3337,0.0701,0.7186,1.1015,-0.1722,0.4098,1.8029,0.3197,-0.2025,0.4528,1.7609,1.2079,-0.0898,0.5933,1.6649,1.0663,-0.0885,0.6810,1.2033,1.3170
884,0,0.2093,0.3245,0.0461,0.6694,1.1063,-0.1500,0.3474,1.8814,0.6223,-0.1819,0.4599,1.7493,1.2175,-0.0753,0.5864,1.6589,1.0659,-0.0731,0.6705,1.1996,1.3166
885,0,0.2083,0.3148,0.0477,0.6686,1.1207,-0.1305,0.2966,1.9437,0.8696,-0.1677,0.4521,1.7565,1.2074,-0.0625,0.5737,1.6703,1.0559,-0.0564,0.6548,1.2116,1.3169
886,0,0.2260,0.3341,0.0347,0.6630,1.1309,-0.1398,0.3071,1.9170,0.8537,-0.1815,0.4412,1.7384,1.1725,-0.0704,0.5925,1.6705,1.0592,-0.0674,0.6795,1.2085,1.3484
887,0,0.3428,0.4625,-0.0008,0.5961,1.1619,0.0678,0.1113,1.0467,0.5500,-0.1844,0.1917,1.0022,0.6978,-0.1803,0.5035,1.6007,1.0736,-0.1212,0.6357,1.1805,1.2165
888,0,0.2662,0.4211,-0.0594,0.5777,1.1134,0.1275,0.0553,0.7209,0.3803,-0.1508,0.3282,0.6306,0.4583,-0.2232,0.5793,1.5484,1.0263,-0.1570,0.7489,1.1729,1.0078
889,0,0.1506,0.3724,-0.0846,0.6019,1.1091,0.0857,0.0784,0.8069,0.4259,-0.1515,0.3892,0.6954,0.5123,-0.2038,0.6515,1.5588,0.9938,-0.1557,0.8194,1.2200,0.9593
890,0,0.2616,0.5264,-0.0525,0.5560,1.1438,0.0297,0.1105,0.7073,0.3747,-0.2077,0.3571,0.5739,0.3709,-0.2510,0.5557,1.5765,0.9930,-0.1671,0.7326,1.2461,0.9286
891,0,0.2328,0.6035,-0.0139,0.5264,1.1481,0.0056,0.1925,0.6729,0.3278,-0.2311,0.3778,0.5207,0.3012,-0.2905,0.4924,1.5776,1.0298,-0.1804,0.6832,1.2420,0.8984
892,0,0.2219,0.5181,-0.0272,0.5333,1.0813,0.1334,0.1540,0.4143,0.2442,-0.2046,0.3542,0.3281,0.2558,-0.3101,0.4426,1.4924,1.0221,-0.1738,0.6295,1.1922,0.8648
893,2,0.2235,0.3070,-0.0109,0.6711,1.0516,-0.0597,0.0987,1.1413,0.5280,-0.2276,0.3794,1.0101,0.8289,-0.2164,0.4242,1.5671,1.0595,-0.1088,0.5648,1.2049,1.1459
894,2,0.2318,0.2159,0.0596,0.8411,1.1449,-0.2392,0.0410,1.8507,0.9125,-0.2503,0.2302,1.7236,1.4157,-0.1132,0.4072,1.7270,1.1825,-0.0500,0.4961,1.2933,1.4934
895,2,0.2472,0.2316,0.0763,0.8552,1.1745,-0.2237,0.0879,1.9078,0.9710,-0.2304,0.3076,1.7394,1.4037,-0.0973,0.4353,1.7232,1.1754,-0.0468,0.5148,1.2874,1.5209
896,2,0.3250,0.2431,0.0667,0.8182,1.1745,-0.1952,0.1064,1.8642,0.9322,-0.2275,0.3274,1.6937,1.3344,-0.1052,0.4366,1.6944,1.1486,-0.0541,0.5202,1.2565,1.5209
897,2,0.2950,0.2526,0.0667,0.7942,1.1745,-0.1817,0.1143,1.8497,0.9191,-0.2209,0.3403,1.6861,1.3111,-0.1016,0.4448,1.6884,1.1447,-0.0552,0.5280,1.2523,1.5209
898,2,0.2504,0.2584,0.0661,0.7750,1.1735,-0.1689,0.1207,1.8422,0.9009,-0.2098,0.3583,1.6847,1.2856,-0.0930,0.4621,1.6766,1.1436,-0.0532,0.5457,1.2363,1.5209
899,2,0.2420,0.2610,0.0637,0.7773,1.1733,-0.1668,0.1260,1.8409,0.8882,-0.2036,0.3731,1.6793,1.2638,-0.0880,0.4814,1.6636,1.1408,-0.0526,0.5676,1.2203,1.5209
900,2,0.2416,0.2617,0.0630,0.7854,1.1743,-0.1680,0.1289,1.8403,0.8878,-0.2033,0.3791,1.6757,1.2526,-0.0876,0.4912,1.6571,1.1402,-0.0534,0.5783,1.2158,1.5209
901,2,0.2580,0.2610,0.0627,0.7861,1.1745,-0.1670,0.1308,1.8392,0.8902,-0.2030,0.3850,1.6760,1.2513,-0.0875,0.4978,1.6560,1.1418,-0.0540,0.5834,1.2178,1.5209
902,2,0.2532,0.2628,0.0641,0.7815,1.1745,-0.1663,0.1285,1.8390,0.8901,-0.2011,0.3885,1.6780,1.2472,-0.0857,0.5002,1.6585,1.1396,-0.0533,0.5849,1.2209,1.5209
903,2,0.2645,0.2643,0.0652,0.7774,1.1745,-0.1647,0.1265,1.8389,0.8892,-0.1989,0.3905,1.6783,1.2407,-0.0845,0.5016,1.6592,1.1381,-0.0534,0.5871,1.2201,1.5209
904,2,0.2988,0.2688,0.0711,0.7729,1.1745,-0.1709,0.1362,1.8598,0.9141,-0.1964,0.4023,1.6842,1.2389,-0.0826,0.5106,1.6718,1.1395,-0.0560,0.5921,1.2452,1.5209
905,0,0.2440,0.3406,0.0516,0.6940,1.1563,-0.1524,0.1540,1.6376,0.8315,-0.2284,0.2881,1.5488,1.1301,-0.0986,0.5487,1.6996,1.1259,-0.0750,0.6351,1.2738,1.4989
906,0,0.1641,0.4892,0.0514,0.6257,1.1562,0.0777,0.0809,0.7298,0.4930,-0.2556,0.0979,0.7551,0.6309,-0.2066,0.4718,1.6885,1.1345,-0.1433,0.5836,1.2933,1.2847
907,0,0.1533,0.5950,0.0794,0.6326,1.1745,0.3291,-0.0411,0.0138,0.2398,-0.2174,0.0778,0.0081,0.1873,-0.3113,0.3342,1.6386,1.1939,-0.2094,0.4574,1.3138,1.0210
909,2,0.2147,0.3525,0.0403,0.5084,1.0141,0.1309,0.2314,1.0196,0.7675,-0.1697,0.4796,0.8937,0.8079,-0.1986,0.6570,1.6137,1.1704,-0.1407,0.7304,1.4162,0.9713
910,0,0.2632,0.1972,-0.0106,0.5229,0.9658,0.0631,0.4158,1.5091,1.0397,-0.1619,0.5232,1.4319,1.1495,-0.1008,0.9055,1.6990,1.2049,-0.1046,0.9597,1.5211,1.0455
911,2,0.3628,0.3122,-0.0666,0.5798,1.0778,0.2736,0.1441,0.5710,0.5192,-0.2136,0.2835,0.5220,0.5180,-0.2024,0.6012,1.7580,1.2064,-0.1619,0.7050,1.5087,0.9713
912,2,0.4760,0.2550,-0.0760,0.5588,0.9900,0.3143,0.0965,0.4729,0.3542,-0.1830,0.4711,0.3364,0.3484,-0.2027,0.5673,1.7881,1.1544,-0.1691,0.6893,1.5350,0.9161
913,0,0.2083,0.0699,-0.0091,0.5298,0.8684,0.1855,0.4453,1.3665,0.8595,-0.0731,0.8335,1.2048,0.8673,-0.0215,0.9628,1.8406,0.9992,-0.1110,1.0586,1.5868,0.8847
914,2,0.2901,0.0244,-0.0404,0.5468,0.8310,0.2879,0.3632,0.9481,0.7255,-0.0907,0.7177,0.8155,0.6038,-0.0473,0.9890,1.8288,1.0185,-0.1548,1.1029,1.5624,0.8542
915,2,0.2282,0.0181,-0.0952,0.5496,0.7345,0.3475,0.1606,0.4666,0.3055,-0.1182,0.6860,0.2435,0.2352,-0.1330,0.8690,1.7723,1.1014,-0.2080,1.0099,1.5021,0.8204
916,0,0.3298,0.0123,0.1196,0.5322,0.8024,0.1772,0.5223,1.3955,0.8326,-0.0532,0.9813,1.1457,0.9140,-0.0250,0.9922,1.8451,1.0552,-0.1259,1.0862,1.5567,0.8548
917,0,0.6310,-0.0040,0.3025,0.5176,0.8854,0.1159,0.8134,1.9697,1.2976,-0.0107,1.1323,1.8056,1.4200,0.0536,1.0994,1.9071,1.0387,-0.0706,1.1533,1.6069,0.9119
918,0,0.4923,-0.0277,0.2589,0.5401,0.8848,0.1197,0.8464,1.9697,1.3324,0.1291,1.1642,1.8638,1.2367,0.0279,1.1297,1.8623,0.5404,-0.0772,1.1704,1.5980,0.9182
919,0,0.5038,-0.0472,0.0172,0.6545,0.9414,0.1637,0.9000,1.9051,1.2446,0.1215,1.1700,1.7994,1.1145,0.0489,1.1744,1.8192,0.5040,-0.0935,1.2463,1.5319,0.9442
920,0,0.5345,0.0624,-0.1466,0.5569,0.8443,0.1979,0.4540,0.9269,0.6176,-0.0869,0.5973,0.8641,0.6270,-0.0421,0.6960,1.4613,0.8305,-0.1091,0.8312,1.1893,0.7335
921,0,0.6078,0.2542,-0.1598,0.4926,0.8552,0.2619,-0.0615,-0.0363,0.1144,-0.1875,0.0252,-0.0277,0.0360,-0.2644,0.1632,1.4740,0.9586,-0.1448,0.4178,1.1849,0.6645
922,0,0.2536,0.5031,-0.0723,0.6028,1.1009,0.0870,0.0825,0.0889,0.2009,-0.2305,0.2348,0.0180,0.0317,-0.3022,0.2149,1.8905,0.9255,-0.1460,0.5205,1.4423,0.8557
923,0,0.3122,0.7197,0.0731,0.5908,1.1746,-0.2183,0.3014,0.5505,0.3071,-0.2965,0.4937,0.5355,0.1884,-0.2569,0.3355,1.9177,0.3038,-0.1195,0.5838,1.3238,1.0340
924,0,0.3245,0.7616,0.1011,0.5833,1.1745,-0.2596,0.2287,0.9721,0.4204,-0.3595,0.3055,1.1802,0.6076,-0.2493,0.3625,1.9347,-0.0550,-0.1195,0.5919,1.2316,1.2943
925,0,0.4755,0.7570,0.1013,0.5824,1.1745,-0.3013,0.1194,0.9944,0.5230,-0.3313,0.0531,1.4107,0.8530,-0.2164,0.3595,1.9540,-0.0609,-0.0933,0.5661,1.2407,1.3481
926,0,0.5052,0.7570,0.0992,0.5817,1.1745,-0.0444,0.0445,0.5112,0.3986,-0.2121,0.0410,0.8918,0.5609,-0.2042,0.3506,1.9006,0.0656,-0.0787,0.5409,1.2463,1.2090
927,2,0.1463,0.7499,0.0959,0.5833,1.1745,0.3617,-0.0719,0.0396,0.1859,-0.0443,0.1301,0.1627,0.2021,-0.2267,0.3126,1.8385,0.2954,-0.0976,0.5087,1.2456,1.1028
929,0,0.2726,0.3327,-0.1394,0.6045,1.1743,0.3012,0.1698,-0.0208,0.1982,0.0770,0.4692,-0.0872,0.0570,-0.1513,0.4462,1.7673,1.2679,-0.0875,0.6476,1.1815,1.1427
930,0,0.2378,0.2683,-0.1768,0.5840,1.1522,0.2477,0.2943,-0.0548,0.1526,0.1254,0.5756,-0.0873,-0.0223,-0.0804,0.5379,1.7398,1.2605,-0.0694,0.7229,1.2036,1.1379
931,0,0.1577,0.3138,-0.1644,0.6084,1.1524,0.4082,0.0531,-0.0770,0.0850,0.0850,0.3678,-0.0873,-0.0755,-0.1505,0.4063,1.7279,1.2722,-0.0908,0.6498,1.2299,1.1350
933,0,0.1639,0.3425,-0.1001,0.6942,1.1745,0.3322,0.0258,-0.0156,0.1199,0.0713,0.3524,-0.0873,0.0001,-0.1690,0.3351,1.7546,1.1504,-0.1049,0.5831,1.2086,1.1981
934,0,0.3109,0.0596,-0.1739,0.7033,1.1745,0.0730,0.5691,0.3369,0.0883,0.1157,0.9156,0.0491,0.1044,-0.0055,0.7698,1.7369,1.2968,-0.0791,0.9221,1.2790,1.1656
935,1,0.1867,-0.0921,-0.1514,0.7624,1.1745,0.0429,0.9166,0.8789,0.0791,0.1254,1.2061,0.6241,0.2493,0.0867,1.0558,1.7352,1.2948,-0.0568,1.1632,1.4441,1.0999
936,1,0.3386,-0.1989,-0.1659,0.8188,1.1745,0.3146,0.5607,0.5998,0.1173,0.0581,0.8103,0.5051,0.1444,-0.0264,0.7749,1.7411,1.2845,-0.0597,0.9976,1.4331,1.0914
937,3,0.1976,-0.2765,-0.1885,0.8475,1.1745,0.5274,0.0640,0.0315,0.1187,-0.0007,0.4051,-0.0624,-0.0064,-0.1600,0.3957,1.7460,1.2869,-0.0658,0.7660,1.3216,1.1621
938,0,0.2072,-0.3088,-0.0417,0.7914,1.1630,0.3296,0.2301,0.7793,0.3773,-0.0479,0.5772,0.6714,0.5064,-0.0982,0.5469,1.7793,1.2563,-0.0560,0.8894,1.3420,1.2034
940,3,0.3047,-0.3396,0.1580,0.7410,1.1434,0.2927,0.5234,1.1312,0.6610,0.0172,0.7915,0.9682,0.7069,0.0175,0.9567,1.7630,1.2758,-0.0544,1.2478,1.2957,1.1934
941,3,0.3490,-0.4837,0.1206,0.9260,1.1583,0.4410,0.1283,0.1521,0.1421,0.1777,0.4832,0.0269,-0.0205,-0.0409,0.6404,1.7460,1.3183,-0.0385,0.9837,1.3703,1.1379
942,3,0.2501,-0.4919,0.0555,1.1644,1.1745,0.4101,0.0659,-0.0755,0.0707,0.2925,0.3383,-0.0873,-0.0873,-0.0693,0.4485,1.7589,1.3521,-0.0082,0.8156,1.4172,1.2029
944,0,0.1754,-0.4045,0.2511,1.2767,1.1745,0.5155,0.0088,-0.0873,0.1387,0.2447,0.2612,-0.0873,-0.0873,-0.1459,0.3749,1.7589,1.3542,-0.0335,0.7547,1.3906,1.2635
947,0,0.3464,0.1320,0.3384,0.5233,0.5310,0.0549,0.0987,1.3967,0.4904,0.0378,0.3779,1.3312,0.7811,0.0722,0.3879,1.2908,0.7509,-0.0178,0.0641,1.2173,0.9072
950,0,0.1845,-0.3393,0.4303,0.3565,0.2457,0.1947,0.6250,1.9697,0.9531,0.0658,1.0105,1.8894,1.0299,0.0658,0.8578,1.7439,1.0959,-0.2103,0.2243,0.7308,0.2152
951,1,0.2935,-0.2476,0.4266,0.4230,0.4904,0.1823,0.6441,1.9697,0.9776,0.0657,1.0745,1.9195,0.9301,0.1489,1.0198,1.8127,1.0210,-0.1566,0.3397,1.0493,0.4125
955,0,0.1525,-0.3830,0.4948,0.3056,-0.1118,0.2109,0.9480,1.9697,1.0516,0.0759,1.2376,1.8363,0.9953,0.0977,1.2092,1.6237,1.1470,-0.1476,0.6922,0.3377,-0.0873
956,0,0.3731,-0.3774,0.5099,0.3123,-0.0936,0.2054,0.9514,1.9697,1.0449,0.0789,1.2416,1.8431,0.9749,0.0978,1.2104,1.6222,1.1406,-0.1779,0.7482,0.2751,-0.0869
959,1,0.1760,-0.3642,0.4901,0.3299,-0.0628,0.2156,0.8981,1.9697,0.9903,0.1004,1.2063,1.8861,0.8835,0.1390,1.0337,1.6160,1.0415,-0.1801,0.5551,0.1860,-0.0768
960,0,0.1926,-0.3994,0.4602,0.3180,-0.0880,0.1896,0.8660,1.9697,1.0037,0.0841,1.2107,1.8707,0.9254,0.1065,1.0255,1.5644,1.1049,-0.2308,0.5455,0.1527,-0.0707
961,0,0.1585,-0.3683,0.3051,0.3591,-0.0313,0.1856,0.8474,1.9697,0.9837,0.0672,1.1922,1.8759,0.9160,0.0840,0.9681,1.5914,1.0681,-0.2303,0.3502,0.2472,-0.0811
962,3,0.1990,-0.3643,0.1405,0.4217,0.0186,0.2191,0.8691,1.9528,0.8558,-0.0177,1.1598,1.8434,1.0072,0.0622,0.8834,1.6308,1.0323,-0.2487,0.1830,0.3201,-0.0873
963,0,0.5309,-0.4434,0.1531,0.4639,-0.0550,0.3112,0.9956,1.9524,0.7118,-0.2314,1.1900,1.6974,1.3203,0.0608,0.9264,1.6429,1.0329,-0.2861,0.2409,0.3046,-0.0873
964,0,0.8769,-0.4707,0.2466,0.4705,-0.0498,0.3641,1.0820,1.9669,0.6702,-0.3810,1.2288,1.5797,1.5210,0.0760,0.9757,1.6498,1.0196,-0.2919,0.3332,0.2607,-0.0873
965,0,0.5659,-0.4641,0.3653,0.4033,-0.0676,0.3519,1.0954,1.9674,0.6611,-0.3747,1.2378,1.5898,1.5209,0.0859,0.9985,1.6209,1.0625,-0.2816,0.4103,0.2135,-0.0873
966,0,0.1831,-0.4778,0.4258,0.3723,-0.1734,0.3485,1.1017,1.9696,0.6617,-0.3510,1.2552,1.6074,1.5141,0.1042,1.0565,1.5551,1.1777,-0.2815,0.5392,0.1437,-0.0872
968,0,0.3208,-0.3901,0.4743,0.2823,-0.1270,0.0918,0.8456,1.9697,1.0437,0.0449,1.2068,1.8838,0.9687,0.0966,0.9504,1.6626,1.1322,-0.2453,0.4379,0.2194,-0.0848
969,0,0.2312,-0.3881,0.4896,0.2921,-0.1372,0.1022,0.9075,1.9697,1.0625,0.0156,1.2219,1.8650,0.9910,0.0984,0.9710,1.6480,1.1321,-0.2252,0.4486,0.2295,-0.0684
970,0,0.2333,-0.4194,0.4831,0.3026,-0.1816,0.1287,0.9475,1.9697,1.0677,-0.0058,1.2377,1.8186,1.0573,0.1114,0.9921,1.6044,1.1642,-0.2112,0.4743,0.1991,-0.0511
971,0,0.2916,-0.4424,0.4583,0.3137,-0.2116,0.1208,0.9333,1.9697,1.0916,0.0206,1.2368,1.8136,1.0487,0.1208,0.9873,1.5833,1.1854,-0.1916,0.4573,0.1995,-0.0416
972,0,0.3566,-0.4354,0.4428,0.3191,-0.2008,0.1081,0.9196,1.9697,1.1339,0.0444,1.2320,1.8376,1.0092,0.1236,0.9725,1.5965,1.1744,-0.1691,0.4284,0.2334,-0.0362
973,0,0.2921,-0.4609,0.3508,0.4713,-0.1655,0.2093,0.9592,1.8914,0.9838,-0.1315,1.2136,1.6863,1.2044,0.1311,1.0059,1.4758,1.2388,-0.2101,0.4891,0.2883,0.0020
974,0,0.3018,-0.4149,0.2379,0.7787,0.2484,0.3724,1.0016,1.7616,0.8388,-0.3835,1.1891,1.4754,1.4594,0.1480,1.0947,1.3607,1.4033,-0.2012,0.6191,0.7863,0.7361
975,0,0.2355,-0.2519,0.2634,0.8349,0.8957,0.4338,1.0199,1.8399,0.8606,-0.4151,1.2156,1.5547,1.5209,0.1401,1.1962,1.5062,1.4986,-0.0796,0.7230,1.4080,1.4756
976,3,0.2363,-0.3425,0.3231,0.6177,0.5390,0.4317,1.0421,1.9696,0.8822,-0.3600,1.2315,1.6659,1.5209,0.1135,1.1791,1.6046,1.4669,-0.1361,0.5658,1.1143,0.9897
979,0,0.2458,-0.1219,0.2910,0.7236,0.9965,0.5120,0.9291,1.9697,0.6896,-0.4087,1.2416,1.6821,1.5209,0.1669,1.1897,1.7035,1.4422,0.0486,0.7678,1.5646,1.5208
980,0,0.2365,-0.1514,0.2726,0.7447,0.9278,0.5059,0.8661,1.9697,0.6807,-0.3656,1.1981,1.6858,1.5151,0.1796,1.1241,1.7165,1.4289,0.0290,0.6825,1.5299,1.5209
981,0,0.1625,-0.0864,0.3194,0.6494,1.0094,0.2900,0.7471,1.9697,1.0509,-0.0877,1.0469,1.7709,1.4572,0.1946,1.0053,1.8049,1.3699,0.0102,0.5548,1.6106,1.5019
982,3,0.1473,-0.2382,0.3458,0.4838,0.5868,0.1547,0.7480,1.9697,1.2099,0.2622,1.0355,1.8806,1.1113,0.0124,0.9719,1.8680,1.2851,-0.1271,0.3553,1.2026,0.9687
985,0,0.1651,-0.0587,0.3745,0.6551,1.0841,0.0922,0.7560,1.9697,1.2288,0.3398,1.1954,1.9613,0.8026,-0.1977,1.1456,1.8511,1.1129,-0.0399,0.6719,1.3424,1.5167
986,0,0.2532,-0.1172,0.3307,0.7228,0.9825,0.1110,0.7206,1.9361,1.1336,0.3531,1.1453,1.8911,0.8282,-0.2216,1.0963,1.7813,1.1353,-0.0656,0.6025,1.2760,1.4913
987,0,0.3385,-0.1262,0.3281,0.7061,0.9046,0.1219,0.7874,1.9319,1.0335,0.3517,1.1432,1.8849,0.8046,-0.2164,1.1122,1.7247,1.2361,-0.0789,0.5388,1.2311,1.3882
990,0,0.1464,-0.1266,0.3388,0.6404,0.9127,0.1026,0.8006,1.9692,1.0970,0.3224,1.1979,1.9445,0.6925,-0.1954,1.1338,1.8146,1.1631,-0.1124,0.8427,1.0369,1.0502
991,0,0.3024,-0.0841,0.3390,0.6718,1.1186,0.0944,0.7881,1.9693,1.1292,0.3206,1.1869,1.9546,0.7563,-0.1398,1.1475,1.8487,1.1407,-0.0746,0.8691,1.1953,1.3106
992,0,0.4447,-0.0673,0.3539,0.6325,1.0707,0.1101,0.7125,1.9690,1.1990,0.2471,1.0633,1.9326,1.0963,0.0168,1.0404,1.8799,1.2524,-0.0301,0.7446,1.3383,1.3819
993,3,0.1756,-0.2162,0.3727,0.4518,0.5973,0.1444,0.6768,1.9694,1.2633,0.1206,0.9982,1.9048,1.4247,0.0935,0.9249,1.8342,1.3916,-0.0972,0.4580,1.0865,0.9807
1000,0,0.1625,-0.1745,0.3916,0.3191,0.3250,0.1235,0.4550,1.9697,1.2505,0.0820,0.9163,1.9246,1.1540,0.1045,0.8767,1.8872,1.1946,-0.1379,0.5643,0.6358,0.1694
1002,3,0.2290,-0.3202,0.3039,0.4352,0.2432,0.0964,0.5004,1.9697,1.1253,0.0793,1.0296,1.9207,1.1312,0.0816,0.9563,1.8014,1.2507,-0.2041,0.5324,0.4508,0.0014
1006,2,0.1787,-0.3183,0.3692,0.3869,0.2341,0.1444,0.4850,1.9697,1.2414,0.0340,1.0222,1.9048,1.2979,0.1101,0.9391,1.8280,1.2733,-0.1839,0.3926,0.8419,0.4056
1009,2,0.2139,-0.3158,0.3429,0.3803,0.1645,0.1407,0.4703,1.9697,1.1757,0.0755,1.0026,1.8975,1.2286,0.0742,0.9178,1.8108,1.2359,-0.2207,0.4378,0.4909,-0.0407
1010,2,0.1897,-0.0595,0.3559,0.5082,0.6930,0.1286,0.7183,1.9697,1.1636,0.0936,1.1516,1.8767,1.1508,0.1424,1.0928,1.8147,1.1740,-0.1770,0.7052,0.6089,-0.0738
1013,0,0.3280,-0.1232,0.2702,0.4994,0.5577,0.1667,0.6958,1.9697,1.1001,0.0852,1.0937,1.9205,1.0778,0.1066,1.0106,1.8099,1.1527,-0.2209,0.4445,0.8548,0.2123
1015,4,0.1407,-0.3506,0.3183,0.3942,0.2670,0.2092,0.6107,1.9697,1.0490,0.0660,1.0411,1.9401,1.0741,0.0520,0.8928,1.8089,1.1760,-0.2288,0.2767,0.5575,-0.0480
1018,0,0.1487,-0.3993,0.3139,0.3355,0.0576,0.2282,0.4797,1.9618,0.9581,0.0642,0.8955,1.9453,1.0578,0.0369,0.7240,1.7608,1.1382,-0.2240,0.1899,0.4938,0.0068
1020,2,0.1410,0.0224,0.3307,0.5279,0.6370,0.1816,0.8175,1.9687,1.2588,0.1081,1.0814,1.8960,1.5000,0.1929,1.0317,1.8787,1.3578,0.0719,0.7042,1.5301,1.4809
1023,0,0.2748,0.0000,0.0000,0.0000,0.0000,0.0000,0.0000,0.0000,0.0000,0.0000,0.0000,0.0000,0.0000,0.0000,0.0000,0.0000,0.0000,0.0000,0.0000,0.0000,0.0000
1025,3,0.3702,0.0000,0.0000,0.0000,0.0000,0.0000,0.0000,0.0000,0.0000,0.0000,0.0000,0.0000,0.0000,0.0000,0.0000,0.0000,0.0000,0.0000,0.0000,0.0000,0.0000
1029,0,0.2269,-0.2968,0.2986,0.4144,0.2416,0.1888,0.6267,1.9697,1.1218,0.0696,0.9979,1.9003,1.3416,0.0470,0.8315,1.8172,1.2032,-0.2214,0.1659,0.7126,0.2730
1030,0,0.2232,-0.0915,0.3099,0.5061,0.6257,0.1477,0.7189,1.9697,1.1528,0.0684,1.0729,1.9193,1.1947,0.1024,0.9857,1.8254,1.1455,-0.1514,0.4766,0.9546,0.6757
1033,0,0.1426,-0.2814,0.3138,0.4392,0.2616,0.1950,0.5743,1.9697,0.9617,0.0603,0.9843,1.9433,1.1550,0.0515,0.7736,1.8184,1.1215,-0.1717,0.1448,0.7356,0.3317
1034,0,0.1698,0.0236,0.3382,0.5062,0.8268,0.1203,0.6427,1.9452,0.8031,-0.0671,1.0635,1.8922,1.1981,0.1376,1.0017,1.8722,1.0774,-0.0957,0.4971,1.1588,1.0839
1035,3,0.2329,0.0554,0.3465,0.4760,0.8937,0.0705,0.6506,1.8438,0.7457,-0.1382,1.0381,1.7481,1.1681,0.1254,1.0285,1.7747,1.0702,-0.0928,0.5300,1.0703,1.2008
1036,3,0.3678,0.0016,0.1658,0.2333,0.3991,0.0364,0.3015,0.8835,0.4164,-0.0346,0.4882,0.8356,0.5157,0.0530,0.4725,0.8346,0.5218,-0.0493,0.1831,0.4506,0.4883
1039,1,0.1478,-0.3042,0.2911,0.5324,0.2818,0.1860,0.6779,1.8933,0.9054,0.0673,1.1730,1.9295,0.9908,0.0935,1.1021,1.7461,1.2112,-0.1429,0.6896,0.6635,0.4964
1040,0,0.1474,-0.4229,0.2438,0.5578,0.0237,0.1980,0.6120,1.8061,0.8861,0.0690,1.1733,1.9247,1.0044,0.0512,1.0261,1.6718,1.2847,-0.2234,0.4311,0.5097,0.0175
1042,3,0.2321,-0.1785,0.1475,0.3722,0.1669,0.0590,0.4193,1.0465,0.5435,0.0327,0.6437,1.1501,0.4890,-0.1415,0.6454,1.1337,0.4760,-0.1368,0.3195,0.2888,0.0165
1043,0,0.1995,-0.1506,0.0661,0.5700,0.2572,0.0036,0.6851,0.8344,0.8825,-0.1798,0.5267,1.2077,-0.0264,0.0805,0.4965,1.2046,-0.0020,-0.2872,0.5814,0.1670,0.1914
1047,0,0.1685,-0.0384,0.3354,0.4537,0.6828,0.1740,0.6155,1.9599,1.0963,0.1057,0.9788,1.9673,1.1933,0.1554,0.9602,1.9065,1.0939,-0.0745,0.3942,1.1673,0.9697
1048,0,0.1411,0.0773,0.3724,0.5094,0.8431,0.1572,0.6282,1.8935,1.0121,0.1459,0.9595,1.8714,1.2630,0.2006,0.9601,1.8067,1.0965,-0.0096,0.5248,1.2611,1.2749
1049,0,0.3064,0.1025,0.4090,0.5899,0.6304,0.1275,0.4193,1.1168,0.4852,0.1747,0.6805,1.0498,0.7176,0.0883,0.6326,1.0028,0.6755,0.0050,0.3236,0.8085,0.6532
1050,0,0.4037,0.0222,0.4505,0.5866,0.5665,0.1833,0.0651,0.1645,0.0757,0.2788,0.1875,0.1195,0.0797,-0.0711,0.2094,0.1110,0.1164,-0.0194,-0.0177,0.3009,0.0101
1051,3,0.1449,-0.1385,0.4460,0.5274,0.5927,0.2705,-0.2362,-0.0873,-0.0067,0.3730,-0.1575,-0.0873,-0.0787,-0.1028,-0.0374,-0.0870,-0.0682,-0.0500,-0.2171,0.1235,-0.0873
1052,3,0.2034,-0.1589,0.3891,0.5145,0.6017,0.2700,-0.1744,-0.0431,-0.0017,0.3691,-0.0786,-0.0715,-0.0582,-0.0845,0.0505,-0.0873,-0.0609,-0.0338,-0.1272,0.1086,-0.0768
1053,0,0.2041,-0.1020,0.3387,0.5580,0.6124,0.2368,0.2671,0.2946,-0.0411,0.3235,0.4686,0.0172,0.0119,0.1507,0.5994,-0.0848,0.0652,0.1339,0.3532,0.1809,0.0547
1054,3,0.1433,-0.0767,0.3225,0.5798,0.6213,0.2301,0.5122,0.3948,-0.0771,0.3098,0.7322,0.0183,0.0347,0.2467,0.8648,-0.0848,0.0842,0.1906,0.6008,0.1825,0.1107
1055,3,0.1682,-0.1277,0.3182,0.5356,0.5784,0.2550,0.1096,0.0570,-0.0587,0.3550,0.2140,-0.0704,-0.0354,-0.0116,0.3480,-0.0873,-0.0336,-0.0166,0.1586,0.1334,-0.0208
1056,3,0.1829,-0.1893,0.3148,0.4485,0.3953,0.2600,-0.2396,-0.0873,-0.0418,0.3743,-0.1677,-0.0693,-0.0849,-0.1322,-0.0075,-0.0862,-0.0672,-0.1117,-0.1483,0.1326,-0.0871
1057,0,0.2567,-0.0930,0.3553,0.4800,0.4952,0.1937,0.0861,-0.0721,0.0047,0.2953,0.1608,-0.0234,-0.0231,-0.0024,0.2733,-0.0656,0.0230,0.0177,0.0592,0.2189,-0.0681
1058,0,0.2108,0.0357,0.3748,0.5981,0.8620,0.0907,0.6191,-0.0722,0.0536,0.1755,0.6955,-0.0413,0.0645,0.1824,0.7360,-0.0667,0.0757,0.1468,0.4345,0.2839,-0.0663
1060,3,0.5112,-0.1133,0.3905,0.4867,0.4988,0.2511,-0.0258,-0.0873,-0.0048,0.3428,0.0708,-0.0873,-0.0590,-0.1117,0.1877,-0.0873,-0.0771,-0.1774,0.0473,0.1406,-0.0873
1061,3,0.1892,-0.1897,0.4513,0.4308,0.3726,0.2757,-0.2672,-0.0873,-0.0128,0.3745,-0.1542,-0.0873,-0.0873,-0.1681,0.0336,-0.0873,-0.0873,-0.2451,-0.0561,0.0991,-0.0873
1062,0,0.3838,-0.1502,0.5749,0.4705,0.7701,0.2642,-0.2854,-0.0873,0.0043,0.3745,-0.1654,-0.0873,-0.0873,-0.1636,0.0542,-0.0873,-0.0873,-0.1663,-0.0530,0.0742,-0.0873
1063,0,0.5370,-0.1253,0.5811,0.6171,1.1241,0.2558,-0.2854,-0.0873,0.0141,0.3745,-0.1621,-0.0873,-0.0873,-0.1517,0.0596,-0.0873,-0.0873,-0.0917,-0.0619,0.0577,-0.0873
1064,0,0.1483,-0.0983,0.4907,0.8385,1.1745,0.2612,-0.2632,-0.0873,0.0014,0.3745,-0.1496,-0.0873,-0.0873,-0.1528,0.0490,-0.0873,-0.0873,-0.0671,-0.0882,0.0675,-0.0873
1065,3,0.1944,-0.0863,0.4468,0.9542,1.1745,0.2785,-0.2453,-0.0871,0.0030,0.3746,-0.1498,-0.0873,-0.0860,-0.1638,0.0374,-0.0872,-0.0862,-0.1225,-0.0958,0.0855,-0.0873
1066,0,0.3755,-0.0957,0.4028,1.0133,1.1745,0.1715,0.1303,0.2053,0.0085,0.2492,0.2404,0.1068,0.0508,-0.0471,0.3525,0.0462,0.0669,-0.0623,0.1485,0.2421,0.0139
1067,0,0.2948,-0.1176,0.3359,1.1168,1.1745,0.0964,0.6598,0.7080,0.0143,0.1618,0.8421,0.4304,0.2688,0.1780,0.9110,0.2325,0.3265,0.0687,0.5942,0.4363,0.2719
1070,0,0.2383,-0.0151,0.4055,0.8634,1.1321,0.1825,0.0940,0.2645,0.0278,0.2907,0.2890,0.1457,0.0725,-0.0883,0.3747,0.0866,0.0968,-0.1449,0.1623,0.3076,0.0727
1071,0,0.2435,0.0018,0.3192,0.9376,1.1687,0.1038,0.5357,0.8757,0.1081,0.2446,0.8630,0.5565,0.3235,0.1240,0.8659,0.4063,0.4002,0.0267,0.4926,0.5700,0.4348
