window_idx,pred_command,confidence
0,24,0.2346
1,24,0.4364
2,24,0.2225
3,8,0.3746
4,8,0.2717
5,19,0.1410
6,22,0.1913
7,8,0.2128
8,24,0.3073
9,8,0.3212
10,8,0.5106
11,24,0.1613
12,8,0.2460
13,19,0.1027
14,21,0.1068
15,8,0.1741
17,24,0.1322
18,24,0.1621
19,21,0.1498
20,24,0.1832
21,24,0.2790
22,8,0.4377
23,20,0.2737
24,24,0.1843
25,24,0.1252
26,8,0.2261
27,8,0.1543
28,9,0.1580
29,8,0.3571
30,8,0.6730
31,8,0.5942
32,24,0.1860
33,21,0.1943
34,8,0.2522
35,30,0.1921
36,24,0.4966
37,23,0.2273
38,16,0.2348
39,24,0.4932
40,24,0.3051
41,22,0.5057
42,24,0.2238
43,24,0.1559
44,22,0.2989
45,8,0.3122
46,19,0.1082
47,24,0.1819
48,24,0.3622
49,22,0.1698
51,24,0.1515
52,8,0.2873
53,8,0.5299
54,8,0.5755
55,8,0.5170
56,8,0.4861
57,8,0.6015
58,8,0.4303
59,8,0.3965
60,8,0.6667
61,8,0.5687
62,8,0.6727
63,8,0.5651
64,19,0.1955
65,8,0.1552
66,0,0.1384
67,8,0.4628
68,24,0.2642
69,8,0.1864
70,8,0.6688
71,8,0.2620
72,8,0.3045
73,8,0.6202
74,8,0.4767
75,8,0.3523
76,9,0.3380
77,8,0.2063
78,24,0.1504
79,24,0.2186
80,8,0.2832
81,24,0.2797
82,24,0.2792
83,8,0.5884
84,8,0.4458
85,8,0.5555
86,8,0.5862
87,8,0.4248
88,8,0.2622
89,24,0.3138
90,24,0.4244
91,24,0.1598
93,19,0.1308
96,24,0.1781
97,24,0.2206
98,24,0.1915
99,24,0.1977
100,24,0.1428
101,24,0.1614
102,24,0.3614
103,24,0.3066
104,24,0.2188
105,22,0.1343
106,8,0.6338
107,8,0.5437
108,8,0.3261
109,8,0.2645
110,19,0.2219
111,7,0.1462
112,7,0.1537
115,24,0.2541
116,30,0.1344
117,15,0.1880
118,18,0.2791
119,13,0.1967
120,8,0.5746
121,8,0.5134
123,7,0.1321
124,7,0.2555
125,14,0.1195
126,28,0.2581
127,5,0.2706
128,5,0.1516
129,21,0.1846
131,8,0.3126
132,12,0.3505
133,5,0.2173
135,7,0.1862
136,27,0.1460
137,28,0.2264
138,5,0.2753
139,5,0.1375
140,21,0.1501
141,24,0.3992
142,22,0.1663
143,28,0.2720
144,5,0.1307
145,5,0.2100
146,5,0.2465
147,24,0.1448
148,7,0.1275
149,8,0.3853
150,28,0.1640
151,5,0.2747
152,7,0.1178
153,21,0.1273
154,8,0.1603
155,28,0.1903
156,9,0.3080
157,5,0.1143
158,24,0.1273
159,19,0.1061
160,28,0.1498
162,5,0.1509
165,28,0.1056
166,28,0.1829
167,21,0.1217
170,28,0.1697
171,6,0.1107
172,28,0.1371
173,2,0.1158
174,12,0.2588
175,5,0.2027
176,7,0.1246
177,24,0.1328
179,19,0.1217
180,5,0.3076
181,21,0.1193
182,7,0.1372
183,18,0.1451
184,19,0.1431
185,5,0.3467
186,5,0.1165
187,16,0.1438
188,8,0.5703
189,8,0.4830
190,5,0.3765
194,12,0.2808
195,7,0.1124
197,8,0.6418
198,8,0.7001
199,8,0.2297
200,8,0.2676
201,8,0.3614
202,16,0.2290
205,21,0.1449
206,21,0.1612
207,24,0.1762
208,21,0.1628
209,7,0.1063
210,7,0.1153
211,0,0.1510
212,4,0.1645
214,21,0.1479
215,21,0.1371
216,8,0.1688
217,8,0.2088
218,12,0.1109
219,1,0.1215
220,8,0.1249
222,5,0.1597
223,21,0.1420
224,21,0.1031
226,5,0.1138
227,24,0.2021
228,24,0.1963
229,24,0.1396
230,7,0.1207
231,8,0.1134
232,19,0.1101
233,21,0.1502
234,21,0.1172
236,8,0.2475
237,8,0.1412
238,5,0.1395
240,8,0.1083
241,6,0.1110
242,7,0.1281
244,19,0.1947
245,7,0.1992
246,19,0.1343
250,21,0.1199
251,7,0.1224
252,21,0.1500
253,8,0.1758
254,8,0.3027
256,8,0.1464
257,8,0.1139
258,5,0.1340
259,9,0.1159
260,5,0.1843
262,8,0.1239
263,19,0.1282
264,7,0.1711
265,8,0.1637
266,6,0.1245
267,19,0.1546
268,23,0.1306
269,19,0.1070
270,21,0.1632
271,19,0.1711
272,19,0.1404
273,5,0.1222
275,8,0.1782
276,1,0.1671
277,1,0.2256
278,5,0.1104
279,7,0.1458
280,8,0.5909
281,8,0.3420
282,19,0.1218
283,8,0.1782
284,8,0.1651
285,7,0.1277
286,21,0.1034
288,8,0.1880
289,24,0.2050
290,7,0.2010
291,21,0.1738
292,7,0.1229
293,24,0.1490
294,24,0.1152
295,8,0.1848
296,8,0.1226
297,8,0.2862
298,8,0.1441
299,7,0.2157
300,24,0.1705
301,19,0.1199
303,21,0.1270
304,19,0.1451
305,21,0.1415
306,21,0.1427
307,8,0.1272
310,8,0.2305
312,24,0.1713
313,8,0.2257
314,8,0.2450
315,24,0.1740
316,24,0.1677
319,21,0.1448
321,8,0.1448
322,24,0.1204
325,19,0.1818
326,8,0.1812
327,7,0.1120
328,19,0.1375
329,8,0.1483
330,19,0.1489
331,23,0.1338
332,21,0.1221
334,8,0.1779
335,7,0.1366
336,7,0.1277
337,8,0.7879
338,8,0.4376
340,8,0.7016
341,8,0.1424
343,8,0.6379
345,8,0.1834
346,8,0.6556
347,21,0.1333
348,24,0.2639
349,8,0.4294
350,16,0.1937
351,7,0.1661
352,8,0.1237
353,21,0.1359
354,21,0.1860
355,21,0.1582
356,22,0.1776
357,8,0.2216
358,24,0.1259
359,24,0.2103
360,21,0.1425
362,24,0.1229
363,21,0.1133
364,8,0.8770
365,8,0.7460
366,24,0.1689
367,8,0.1820
368,8,0.2224
369,24,0.1712
370,24,0.3113
371,24,0.2181
372,8,0.3384
373,7,0.1055
374,19,0.1536
375,8,0.4547
376,8,0.3571
377,24,0.1498
378,15,0.1655
379,19,0.1424
380,21,0.1237
381,21,0.1871
382,19,0.1459
383,22,0.1762
384,24,0.4493
385,24,0.2208
386,0,0.1205
387,11,0.2201
388,7,0.1075
389,21,0.1244
390,22,0.1316
391,24,0.1204
392,21,0.1156
393,19,0.1629
394,24,0.1553
395,19,0.1525
396,19,0.1748
397,24,0.2393
398,24,0.1737
399,24,0.3050
400,24,0.2911
401,24,0.2286
402,24,0.2565
403,24,0.4692
404,24,0.2290
405,24,0.1715
406,24,0.1177
407,19,0.1358
409,7,0.1175
410,21,0.1347
411,21,0.1840
412,7,0.1199
413,24,0.2303
414,19,0.2330
415,24,0.2085
416,7,0.1683
417,24,0.3361
418,24,0.4929
419,24,0.3641
420,24,0.2099
421,19,0.1346
422,21,0.1756
423,7,0.1764
424,7,0.1796
425,22,0.1646
426,16,0.2881
427,21,0.1481
428,21,0.1552
429,0,0.1856
430,0,0.1189
431,21,0.1632
432,19,0.1388
434,21,0.1692
435,21,0.2471
436,0,0.1774
437,11,0.1848
438,22,0.1100
439,19,0.2010
440,23,0.1040
441,24,0.1325
442,24,0.3115
444,7,0.1527
445,32,0.1045
447,7,0.1942
448,7,0.2853
449,21,0.1035
450,0,0.1115
451,5,0.1037
452,21,0.1498
453,21,0.1715
454,5,0.1817
455,16,0.2582
456,16,0.4296
457,2,0.1503
458,5,0.1063
459,24,0.2012
460,28,0.1162
461,2,0.1532
462,2,0.2157
463,2,0.2623
465,16,0.1372
466,33,0.1506
469,5,0.1242
470,19,0.1185
472,12,0.1366
473,2,0.1482
474,12,0.1243
477,5,0.1108
478,4,0.1255
480,21,0.1311
481,5,0.1299
482,7,0.1394
484,28,0.1116
485,4,0.2743
486,2,0.2141
489,4,0.3607
491,21,0.1141
492,21,0.1139
493,24,0.1678
496,32,0.1182
497,7,0.1600
498,7,0.1622
502,7,0.1511
503,21,0.1477
506,24,0.1412
507,24,0.1882
508,5,0.1127
509,5,0.1920
510,5,0.1483
511,5,0.1804
512,21,0.2006
516,7,0.1139
517,19,0.1698
518,12,0.1386
519,25,0.1619
520,2,0.1398
521,15,0.2375
522,0,0.1818
523,1,0.1478
524,2,0.1439
525,12,0.2121
526,15,0.1385
527,29,0.1143
529,12,0.1215
530,31,0.1671
532,29,0.1179
533,2,0.1157
535,21,0.1167
536,7,0.1506
537,24,0.2870
538,24,0.3579
539,24,0.3672
541,32,0.1296
542,0,0.4343
543,11,0.2426
544,24,0.2889
545,30,0.1784
546,0,0.2111
547,7,0.1659
548,21,0.1230
549,8,0.1378
550,7,0.1198
551,8,0.1406
552,8,0.2835
553,0,0.3291
555,21,0.1369
556,21,0.1132
558,24,0.1451
559,21,0.1412
560,24,0.2855
561,8,0.1319
562,24,0.1530
563,24,0.1829
564,21,0.1179
565,21,0.1249
566,7,0.1372
567,8,0.1308
568,8,0.1456
569,7,0.1474
570,21,0.1070
571,21,0.1164
572,24,0.1225
573,24,0.1273
574,21,0.1546
575,24,0.1175
576,8,0.1401
577,8,0.1387
578,6,0.1030
579,30,0.1600
580,24,0.2266
581,21,0.1343
582,8,0.3431
583,8,0.1604
584,21,0.1219
585,21,0.1696
586,8,0.1123
587,8,0.2058
588,8,0.3517
589,8,0.1413
591,8,0.1067
592,7,0.1282
593,8,0.1766
594,8,0.2374
595,8,0.4059
596,7,0.1454
598,8,0.2475
599,24,0.4087
600,24,0.2845
601,8,0.2435
602,24,0.1186
603,19,0.1403
604,8,0.1532
605,8,0.1174
606,8,0.1200
607,19,0.1838
608,8,0.1499
609,8,0.1260
610,8,0.1280
611,24,0.2225
612,21,0.1268
613,8,0.3658
614,30,0.1088
615,24,0.2235
616,8,0.2316
617,8,0.1861
618,21,0.1625
619,24,0.1602
620,8,0.3215
621,8,0.2865
622,24,0.3074
623,24,0.6466
624,19,0.1667
625,19,0.1613
626,24,0.1521
627,8,0.1216
628,19,0.1085
629,7,0.1073
630,8,0.4221
631,8,0.1131
632,21,0.2064
633,24,0.1820
634,8,0.1314
636,24,0.3184
637,8,0.2262
638,11,0.1595
639,21,0.1474
640,8,0.3917
641,8,0.2767
642,21,0.1516
643,8,0.1500
644,7,0.1356
645,7,0.1837
646,8,0.1794
647,8,0.3516
648,24,0.2930
649,21,0.1672
650,8,0.3238
651,11,0.1459
653,8,0.1475
654,21,0.1835
655,11,0.1226
656,11,0.1094
657,19,0.1208
658,8,0.1481
659,24,0.1626
661,11,0.1031
662,24,0.2113
663,8,0.1779
664,24,0.1585
665,24,0.1094
666,21,0.1350
667,24,0.1613
668,19,0.1214
669,8,0.2772
670,19,0.2598
671,24,0.3810
672,24,0.2618
673,10,0.2353
674,24,0.2526
675,19,0.1842
676,16,0.2748
677,8,0.2850
678,8,0.2420
679,19,0.2165
680,8,0.5636
681,8,0.6207
682,8,0.2310
683,19,0.1230
684,19,0.2525
685,7,0.2300
686,7,0.2021
687,7,0.2220
688,19,0.1348
689,19,0.1805
690,19,0.1411
691,21,0.1252
692,7,0.1576
693,21,0.1095
694,21,0.1454
696,16,0.3433
697,8,0.5266
702,8,0.4269
703,8,0.3636
704,7,0.1780
705,5,0.1204
708,8,0.8354
709,8,0.2606
710,8,0.1153
711,8,0.2337
712,8,0.1560
713,8,0.4164
714,19,0.1536
715,8,0.1936
716,8,0.1723
717,8,0.5968
718,20,0.1539
719,8,0.4803
720,8,0.1234
721,8,0.1337
722,8,0.5956
723,8,0.5623
724,21,0.1401
725,8,0.3909
726,8,0.3793
727,5,0.2028
728,8,0.3152
729,8,0.7032
730,8,0.4762
731,8,0.8365
732,8,0.8394
733,8,0.2682
734,8,0.7159
735,8,0.2741
736,7,0.1219
737,19,0.2072
738,8,0.7930
739,8,0.3034
740,8,0.2513
741,8,0.6220
742,16,0.2204
744,8,0.3869
745,16,0.1834
747,24,0.1635
748,16,0.1465
749,16,0.1185
750,5,0.1112
751,24,0.2324
752,19,0.1312
753,21,0.1079
754,7,0.1084
755,8,0.2016
756,6,0.1028
757,8,0.2168
758,30,0.2806
759,19,0.1485
760,5,0.3509
761,8,0.3050
762,8,0.3641
763,21,0.1349
764,21,0.1143
765,7,0.1303
766,19,0.1797
767,10,0.2169
768,7,0.2552
769,5,0.1325
770,7,0.1324
771,7,0.2635
772,24,0.2351
773,21,0.1772
774,7,0.1159
775,8,0.1316
776,10,0.2160
777,24,0.2758
778,24,0.1695
779,21,0.2032
780,21,0.2573
781,8,0.2236
782,9,0.1813
783,7,0.1353
784,19,0.2362
785,19,0.1156
786,21,0.1129
787,19,0.1454
788,19,0.1950
789,21,0.1368
790,7,0.1550
791,24,0.1721
792,7,0.1668
793,8,0.1535
794,7,0.1343
795,21,0.1788
796,23,0.1103
797,8,0.1868
798,8,0.3259
799,21,0.1312
800,19,0.1225
801,10,0.1198
802,24,0.1701
803,8,0.1427
804,24,0.1180
805,8,0.2830
806,8,0.2315
807,8,0.5258
808,8,0.3176
809,24,0.2084
810,21,0.2445
811,19,0.1741
812,8,0.5994
813,8,0.2114
814,24,0.2380
815,24,0.2093
816,8,0.1720
817,7,0.1068
818,8,0.1641
819,10,0.1664
820,8,0.3964
821,8,0.3510
822,8,0.4638
823,8,0.5558
824,19,0.1369
825,22,0.1940
826,16,0.2146
827,16,0.3353
828,8,0.4944
829,8,0.1335
830,0,0.1774
831,0,0.7953
832,0,0.5625
833,2,0.1955
834,33,0.2108
835,33,0.3150
836,33,0.5285
837,33,0.6206
838,4,0.4606
839,1,0.1191
840,24,0.1619
843,21,0.1035
846,24,0.1415
847,7,0.1377
848,24,0.1675
849,24,0.1764
850,24,0.1378
851,10,0.1435
852,8,0.1144
854,5,0.1454
855,8,0.1121
856,10,0.1165
857,5,0.1680
860,2,0.2625
862,24,0.1370
864,8,0.4130
866,4,0.2045
867,4,0.1469
868,19,0.1862
869,24,0.1761
870,24,0.1749
871,19,0.1217
873,23,0.1112
874,19,0.1424
875,5,0.1025
876,5,0.3010
877,5,0.1939
878,7,0.1172
880,7,0.1039
881,24,0.1070
882,24,0.1027
883,24,0.1089
884,24,0.1233
885,24,0.1140
887,7,0.1404
888,19,0.1964
889,6,0.1597
890,8,0.1413
891,8,0.2054
892,19,0.1880
893,7,0.1598
894,7,0.1403
895,24,0.1398
896,7,0.1045
898,24,0.1074
899,24,0.1048
901,13,0.1055
902,13,0.1085
903,24,0.1164
904,24,0.1439
905,24,0.1112
906,24,0.2050
907,8,0.5727
908,9,0.1782
909,24,0.1868
910,19,0.1729
911,8,0.4637
912,8,0.3041
913,23,0.1457
914,19,0.2086
915,19,0.1219
917,5,0.2383
918,7,0.1916
919,7,0.1236
920,5,0.2091
921,5,0.1235
922,5,0.1929
923,7,0.1286
924,21,0.1514
925,0,0.1142
926,12,0.1035
927,4,0.5667
928,4,0.9480
930,19,0.1537
931,6,0.1267
932,4,0.1853
934,25,0.1061
935,19,0.1647
936,24,0.2403
938,18,0.1267
939,7,0.1211
940,23,0.1502
941,23,0.1551
942,12,0.2551
943,12,0.2241
944,23,0.1435
945,4,0.1395
946,4,0.4029
949,8,0.1286
950,7,0.1450
951,7,0.1986
952,21,0.2034
953,19,0.1327
954,15,0.1092
955,15,0.1654
956,15,0.1031
957,24,0.2146
958,7,0.2749
959,7,0.2106
960,19,0.1826
961,16,0.2046
962,23,0.1542
963,16,0.2646
964,8,0.8314
965,8,0.6575
966,15,0.1733
967,7,0.3200
968,7,0.1436
969,5,0.1224
971,5,0.1582
972,7,0.1682
973,21,0.1287
976,30,0.1532
979,7,0.1128
980,7,0.1383
981,7,0.1587
982,16,0.1392
983,0,0.1117
985,21,0.1050
986,29,0.1059
988,30,0.1363
989,24,0.1268
991,29,0.1200
993,21,0.1091
994,19,0.1071
995,24,0.2458
996,24,0.2303
997,19,0.1619
999,19,0.1137
1000,19,0.1477
1001,21,0.1603
1002,24,0.1448
1004,24,0.1232
1005,24,0.2373
1006,24,0.2270
1007,24,0.1320
1008,21,0.1737
1009,7,0.1438
1011,16,0.1389
1012,0,0.1272
1013,5,0.1059
1014,8,0.2420
1016,8,0.2902
1017,8,0.3261
1018,15,0.1172
1019,29,0.1223
1021,8,0.2814
1022,31,0.1337
1023,5,0.1204
1024,8,0.3006
1025,8,0.2663
1026,7,0.2802
1027,7,0.1145
1028,30,0.1802
1029,7,0.1857
1030,7,0.1272
1031,24,0.1129
1032,15,0.1177
1033,5,0.2001
1035,24,0.3290
1036,19,0.1456
1037,32,0.1175
1038,31,0.1028
1039,30,0.1400
1040,7,0.1505
1041,21,0.1644
1042,21,0.2919
1043,5,0.1560
1045,21,0.1418
1046,7,0.1186
1047,13,0.1178
1049,21,0.1063
1050,21,0.1445
1051,23,0.2272
1053,24,0.1029
1055,19,0.1433
1056,7,0.1413
1057,21,0.1125
1058,24,0.1317
1059,19,0.1182
1060,23,0.1679
1061,23,0.1418
1062,1,0.1148
1063,19,0.1526
1064,19,0.1403
1065,19,0.1305
1066,7,0.1317
1067,21,0.1368
1068,8,0.1555
1069,8,0.2456
1070,5,0.1137
1072,28,0.1090
1073,28,0.1318
1074,21,0.1165
1075,7,0.1072
1076,23,0.1944
1077,23,0.1621
1078,7,0.1136
1079,0,0.1177
1080,8,0.6130
1082,8,0.1671
1083,8,0.8627
1084,8,0.2238
1085,7,0.1207
1086,8,0.1673
1087,28,0.1267
1089,21,0.1283
1090,8,0.3873
1091,8,0.6681
1094,8,0.1391
1095,8,0.2904
1097,7,0.1161
1099,23,0.1184
1100,19,0.2827
1101,7,0.1956
1102,21,0.1430
1103,8,0.1631
1104,16,0.2186
1105,23,0.1704
1107,8,0.1346
1108,23,0.1303
1109,19,0.1135
1110,21,0.1446
1111,21,0.1461
1112,21,0.1543
1113,23,0.1597
1114,19,0.2775
1115,7,0.1587
1116,24,0.1329
1117,21,0.1084
1118,7,0.1963
1119,7,0.1810
1120,7,0.2128
1121,7,0.2524
1122,7,0.1722
1123,7,0.1905
1124,7,0.1760
1125,24,0.1791
1126,7,0.1509
1127,21,0.1453
1128,21,0.1330
1131,24,0.1235
1133,7,0.1067
1134,24,0.1155
1137,5,0.1122
1138,9,0.1348
1139,9,0.1265
1141,5,0.1233
1142,7,0.1555
1143,7,0.1558
1144,24,0.3954
1146,24,0.1101
1147,7,0.1357
1149,4,0.3304
1152,4,0.3546
1153,4,0.2672
1154,7,0.1080
1155,24,0.1676
1157,4,0.4314
1158,25,0.1110
1159,7,0.1044
1160,7,0.1202
1161,33,0.1494
1162,0,0.1057
1165,25,0.1237
1166,25,0.1871
1167,25,0.1265
1169,13,0.1407
1170,0,0.1288
1171,25,0.1805
1172,7,0.1182
1177,24,0.1037
1178,21,0.1223
1179,7,0.1038
1180,5,0.1732
1181,19,0.1057
1183,5,0.1662
1184,5,0.1826
1187,9,0.1600
1191,5,0.1971
1192,5,0.1905
1193,7,0.1299
1194,7,0.1525
1196,8,0.6340
1197,8,0.6429
1200,19,0.1457
1201,7,0.1147
1202,5,0.1268
1203,5,0.1244
1207,7,0.1043
1209,31,0.1285
1210,11,0.1193
1211,21,0.1298
1212,21,0.1882
1213,20,0.1184
1214,20,0.1451
1215,22,0.1195
1216,8,0.2009
1217,20,0.1467
1218,30,0.1220
1219,21,0.1858
1220,7,0.1752
1221,21,0.2452
1222,21,0.2137
1223,24,0.3892
1225,4,0.1031
1226,21,0.1139
1227,19,0.1845
1228,15,0.2538
1229,15,0.1714
1232,32,0.1728
1233,19,0.1678
1234,19,0.1948
1235,9,0.1717
1236,19,0.1468
1237,8,0.1479
1238,7,0.1596
1239,19,0.1893
1240,19,0.1922
1241,19,0.1382
1243,5,0.1559
1244,21,0.1883
1245,9,0.2312
1246,5,0.2381
1247,9,0.1416
1248,9,0.2446
1249,9,0.2160
1250,9,0.3413
1251,9,0.4281
1252,16,0.3252
1253,19,0.1907
1254,9,0.1351
1255,5,0.1308
1256,8,0.2299
1257,16,0.5676
1258,16,0.1714
1259,11,0.1916
1260,11,0.2379
1261,16,0.1735
1262,16,0.2529
1263,9,0.2259
1264,7,0.1940
1265,19,0.1791
1266,19,0.3239
1267,19,0.2615
1268,7,0.1456
1269,7,0.1484
1270,21,0.1306
1271,19,0.2158
1272,21,0.3265
1273,19,0.1683
1274,19,0.1974
1275,5,0.1741
1276,7,0.1460
1277,19,0.1441
1278,21,0.1245
1279,21,0.1873
1280,19,0.1166
1281,19,0.2698
1282,16,0.1703
1283,5,0.1192
1284,19,0.2424
1285,16,0.4015
1286,19,0.1441
1287,19,0.1088
1289,19,0.2032
1290,19,0.1888
1291,5,0.1970
1292,5,0.1834
1293,19,0.1437
1294,9,0.1988
1295,5,0.1218
1296,21,0.1209
1297,7,0.1176
1298,16,0.1151
1299,9,0.2317
1300,8,0.1707
1301,5,0.1127
1302,7,0.1085
1303,19,0.1430
1304,19,0.2313
1305,9,0.3305
1306,8,0.3526
1307,9,0.2187
1308,5,0.1211
1309,16,0.1623
1310,16,0.6144
1311,16,0.2300
1312,5,0.2119
1313,9,0.2732
1314,8,0.5678
1315,5,0.1792
1316,5,0.1720
1317,15,0.1845
1318,24,0.3177
1319,24,0.2793
1320,21,0.2112
1321,8,0.1464
1322,24,0.1502
1323,24,0.1543
1325,7,0.1411
1326,15,0.1087
1327,16,0.1505
1328,21,0.3529
1329,24,0.3196
1330,24,0.2545
1331,24,0.1542
1332,7,0.1206
1333,9,0.1199
1334,21,0.1320
1335,8,0.1588
1336,8,0.2169
1337,8,0.1330
1338,7,0.1071
1339,7,0.2031
1340,5,0.1798
1341,15,0.1816
1342,21,0.1670
1343,19,0.1516
1344,5,0.1280
1345,15,0.1332
1346,19,0.1565
1347,8,0.2449
1348,21,0.1507
1349,5,0.1478
1350,19,0.1456
1351,8,0.2925
1352,21,0.1898
1353,19,0.1048
1355,19,0.1628
1356,19,0.1858
1357,8,0.1414
1358,8,0.3358
1359,21,0.1608
1360,7,0.1567
1361,7,0.1231
1362,7,0.1192
1363,7,0.1337
1365,15,0.2368
1366,21,0.2812
1367,19,0.2210
1368,7,0.1094
1369,21,0.1117
1370,16,0.2303
1371,21,0.1829
1372,15,0.1294
1373,21,0.1465
1374,8,0.5813
1375,8,0.1537
1376,19,0.1466
1377,21,0.1325
1378,9,0.3095
1379,23,0.2195
1380,19,0.1905
1381,24,0.1913
1382,5,0.1280
1383,23,0.1619
1384,20,0.1545
1385,7,0.1188
1388,19,0.1493
1389,23,0.1542
1390,7,0.2124
1391,7,0.1808
1392,21,0.1277
1393,21,0.1593
1394,7,0.1721
1395,21,0.2700
1396,8,0.2053
1398,21,0.2137
1399,8,0.3469
1400,24,0.1271
1401,24,0.1493
1402,24,0.1861
1403,24,0.1337
1404,24,0.2474
1405,24,0.1585
1406,5,0.1415
1407,16,0.2150
1408,19,0.1279
1409,19,0.1862
1410,8,0.1835
1411,8,0.1381
1412,8,0.1442
1413,21,0.1645
1414,7,0.1258
1415,5,0.3008
1416,5,0.1850
1417,8,0.2378
1418,19,0.1588
1419,19,0.1675
1420,19,0.1804
1421,8,0.4052
1422,9,0.3897
1423,9,0.4371
1424,9,0.5333
1425,9,0.5275
1426,8,0.5327
1427,9,0.6887
1428,8,0.4940
1429,8,0.4474
1430,8,0.3472
1431,9,0.5452
1432,9,0.3661
1433,8,0.5695
1434,8,0.6923
1435,8,0.5256
1436,9,0.4471
1437,9,0.3251
1438,8,0.4909
1439,19,0.1780
1440,24,0.1651
1441,5,0.1969
1442,5,0.1579
1443,24,0.1229
1444,8,0.4449
1445,8,0.5998
1446,19,0.1659
1447,5,0.1693
1448,7,0.1280
1449,8,0.1551
1450,8,0.5216
1451,8,0.6561
1452,9,0.3678
1453,9,0.1174
1454,7,0.1409
1455,19,0.1309
1456,16,0.3814
1457,19,0.2238
1458,9,0.1745
1459,8,0.1616
1460,19,0.1406
1461,8,0.4172
1462,16,0.1968
1463,19,0.1598
1464,24,0.1482
1465,24,0.1091
1466,19,0.1789
1467,19,0.1481
1468,16,0.5068
1469,8,0.3961
1470,19,0.1782
1471,7,0.2117
1472,7,0.1207
1473,9,0.1467
1474,19,0.2879
1475,19,0.2191
1477,5,0.1920
1478,7,0.1242
1479,5,0.1167
1480,19,0.1084
1481,21,0.1512
1482,21,0.1557
1483,5,0.1562
1484,9,0.1335
1485,24,0.1689
1486,19,0.1675
1487,19,0.1434
1488,7,0.1534
1489,7,0.1136
1490,7,0.1079
1491,16,0.1975
1492,8,0.5841
1493,0,0.1458
1494,5,0.1196
1495,7,0.1157
1496,8,0.1323
1497,8,0.7228
1498,28,0.1727
1501,21,0.1078
1503,22,0.1496
1504,28,0.1296
1505,12,0.1790
1506,8,0.5671
1507,8,0.7618
1508,8,0.7162
1509,8,0.1719
1510,8,0.1491
1511,8,0.3222
1512,8,0.5615
1513,8,0.6965
1514,8,0.1608
1515,8,0.1241
1516,8,0.3034
1517,8,0.6535
1518,8,0.2464
1519,7,0.1458
1520,7,0.1666
1521,24,0.1916
1522,30,0.1503
1524,16,0.4632
1525,16,0.4272
1526,8,0.4436
1527,8,0.4129
1528,8,0.2370
1529,7,0.1923
1530,7,0.1539
1531,7,0.1239
1532,5,0.1626
1533,8,0.4197
1534,8,0.8054
1535,8,0.6711
1536,8,0.1910
1538,7,0.1361
1539,5,0.3055
1540,7,0.1642
1541,24,0.1584
1542,24,0.1872
1543,8,0.2860
1544,8,0.5342
1545,8,0.4354
1547,5,0.2095
1548,5,0.1818
1549,21,0.1238
1550,7,0.1319
1551,7,0.1363
1552,19,0.1323
1553,16,0.3243
1554,9,0.2423
1555,5,0.1879
1556,5,0.1336
1557,7,0.1511
1558,7,0.1538
1559,7,0.1077
1560,9,0.1392
1561,9,0.1851
1562,8,0.2083
1563,8,0.7603
1564,8,0.6376
1565,8,0.2436
1566,7,0.1287
1567,19,0.1141
1568,21,0.1275
1569,8,0.7289
1570,8,0.1040
1571,9,0.1231
1572,16,0.2889
1573,16,0.4467
1574,8,0.4902
1575,9,0.1736
1576,16,0.2088
1577,8,0.6272
1578,16,0.3881
1579,8,0.1185
1580,8,0.8402
1581,8,0.7963
1582,19,0.1851
1583,21,0.1423
1584,21,0.1223
1585,19,0.1414
1586,7,0.1816
1587,7,0.1150
1588,7,0.1190
1590,21,0.1150
1591,5,0.1267
1592,5,0.1052
1593,19,0.1037
1596,14,0.1132
1597,5,0.1778
1598,6,0.1242
1599,6,0.1304
1600,19,0.1723
1601,8,0.1532
1602,25,0.1154
1603,25,0.1920
1606,19,0.1639
1607,19,0.1448
1608,19,0.1173
1610,19,0.1324
1611,19,0.1412
1612,19,0.1085
1614,7,0.1936
1615,7,0.1488
1616,7,0.1277
1618,28,0.1150
1619,19,0.1427
1622,5,0.1302
1625,5,0.1778
1626,5,0.1616
1627,19,0.1154
1629,7,0.1190
1632,5,0.2055
1633,5,0.1066
1634,12,0.1075
1636,19,0.1414
1639,23,0.1039
1641,28,0.1089
1642,6,0.1488
1643,28,0.1572
1644,23,0.1527
1646,12,0.1029
1647,28,0.1138
1648,9,0.1135
1649,23,0.1700
1650,23,0.1518
1651,19,0.1303
1652,13,0.1278
1654,16,0.1236
1655,1,0.1267
1656,9,0.2466
1657,6,0.1117
1658,1,0.1365
1659,4,0.2771
1662,22,0.1759
1663,8,0.7506
1664,8,0.5582
1665,8,0.5810
1666,16,0.5793
1667,12,0.2736
1669,21,0.1962
1670,8,0.1671
1671,19,0.1274
1672,8,0.5112
1673,8,0.6440
1674,7,0.1300
1675,24,0.1601
1676,19,0.1535
1677,8,0.7389
1678,8,0.3929
1679,7,0.1531
1680,19,0.2579
1681,16,0.2257
1682,8,0.2361
1683,21,0.2871
1684,7,0.2455
1685,11,0.1529
1686,24,0.1865
1687,23,0.1463
1688,19,0.1766
1689,19,0.1386
1690,7,0.1183
1691,8,0.2032
1692,19,0.1088
1693,8,0.2516
1694,8,0.4050
1695,8,0.2333
1696,10,0.1720
1697,24,0.1618
1698,21,0.1824
1699,19,0.1792
1702,21,0.1738
1703,24,0.2099
1704,8,0.5085
1705,8,0.3054
1706,7,0.1598
1707,21,0.1954
1708,7,0.1947
1709,7,0.1459
1710,8,0.3361
1711,8,0.7686
1712,21,0.1213
1713,24,0.1128
1714,7,0.1290
1715,7,0.1833
1716,8,0.6648
1717,8,0.4095
1719,7,0.1380
1720,7,0.1266
1721,9,0.1697
1722,8,0.6356
1723,16,0.2762
1725,7,0.1290
1726,7,0.1431
1727,9,0.1031
1728,8,0.3503
1729,8,0.7967
1730,21,0.1841
1731,21,0.1209
1732,7,0.1142
1734,8,0.1627
1735,8,0.5772
1736,8,0.3994
1737,7,0.1312
1738,7,0.1296
1739,7,0.1149
1740,21,0.1267
1741,8,0.2908
1742,8,0.1460
1743,7,0.1149
1744,7,0.1184
1745,7,0.1142
1746,8,0.1401
1747,8,0.5945
1748,8,0.3335
1750,24,0.1049
1751,7,0.1388
1752,21,0.1934
1753,16,0.1037
1754,11,0.1219
1755,7,0.1659
1756,7,0.1591
1757,7,0.1294
1758,8,0.4399
1759,8,0.2478
1760,11,0.1686
1761,21,0.2151
1762,21,0.1704
1763,21,0.2817
1764,16,0.2655
1765,0,0.2165
1766,11,0.2130
1767,21,0.1652
1768,8,0.4040
1769,8,0.5019
1770,7,0.1331
1771,7,0.1419
1772,7,0.1078
1773,8,0.1592
1774,8,0.2571
1775,21,0.1033
1776,7,0.1166
1777,8,0.1098
1778,23,0.1295
1779,8,0.1550
1781,7,0.1407
1782,7,0.1073
1783,24,0.1238
1784,0,0.2562
1785,0,0.1105
1786,24,0.1716
1787,0,0.1990
1788,28,0.1029
1789,24,0.1622
1790,24,0.2513
1791,7,0.1771
1792,24,0.1682
1793,19,0.1551
1794,19,0.1622
1795,5,0.1467
1796,8,0.2133
1797,0,0.1060
1798,21,0.1211
1799,24,0.1429
1802,24,0.1835
1803,24,0.3291
1804,24,0.3331
1805,24,0.2215
1806,5,0.1625
1808,29,0.1025
1809,21,0.1166
1810,21,0.1397
1812,24,0.2719
1813,24,0.3038
1814,22,0.1983
1816,18,0.1703
1817,16,0.2128
1818,8,0.4514
1819,8,0.1107
1821,24,0.1157
1822,19,0.1712
1823,7,0.2034
1824,5,0.1710
1825,18,0.1134
1826,7,0.1435
1828,8,0.8832
1829,8,0.8652
1830,7,0.2417
1831,7,0.1747
1832,19,0.1843
1833,8,0.1840
1834,8,0.2654
1835,7,0.1405
1836,21,0.1041
1837,21,0.1605
1838,24,0.2680
1841,24,0.2144
1842,24,0.1740
1843,19,0.1230
1844,19,0.1161
1845,8,0.8182
1846,8,0.6452
1847,24,0.1326
1848,24,0.3618
1849,24,0.1701
1850,7,0.1148
1854,13,0.1061
1856,7,0.1119
1857,7,0.1809
1858,21,0.1641
1859,24,0.1259
1860,7,0.1880
1861,7,0.2438
1862,11,0.1228
1863,24,0.2546
1864,24,0.4328
1865,7,0.2168
1866,19,0.1053
1867,24,0.2937
1868,24,0.1722
1869,24,0.1847
1870,7,0.1859
1871,24,0.2386
1872,24,0.3018
1873,21,0.2015
1874,19,0.1159
1875,21,0.1426
1876,7,0.2280
1877,8,0.1528
1878,24,0.2391
1879,24,0.2293
1880,24,0.1306
1881,24,0.1641
1882,7,0.3025
1883,7,0.2030
1884,7,0.2177
1885,7,0.2797
1886,7,0.1990
1887,24,0.2525
1888,24,0.2270
1889,21,0.1900
1891,7,0.2018
1892,21,0.2166
1893,21,0.1384
1894,7,0.2191
1895,21,0.1428
1896,21,0.1385
1897,24,0.2139
1898,24,0.1402
1899,24,0.3926
1900,21,0.1936
1901,7,0.1398
1902,7,0.2790
1903,7,0.2682
1904,21,0.2485
1905,19,0.1279
1906,21,0.1508
1907,24,0.2494
1908,19,0.1453
1909,23,0.1148
1910,23,0.1205
1911,24,0.2269
1912,24,0.2164
1913,23,0.1085
1914,23,0.1892
1915,19,0.1517
1916,21,0.1942
1917,24,0.1730
1918,7,0.1491
1919,24,0.2844
1920,21,0.1821
1921,21,0.1333
1922,8,0.1602
1923,19,0.1213
1924,19,0.1347
1925,21,0.2743
1926,23,0.1265
1929,24,0.3419
1930,24,0.7007
1931,21,0.1233
1933,21,0.1080
1934,21,0.1681
1935,19,0.1745
1936,5,0.1750
1940,5,0.1986
1941,5,0.2056
1942,7,0.1167
1943,19,0.1071
1944,7,0.1819
1945,5,0.1688
1946,5,0.2008
1947,5,0.1497
1948,5,0.2460
1949,5,0.2644
1951,7,0.1509
1952,7,0.1919
1953,5,0.2240
1954,1,0.1191
1955,1,0.1854
1956,7,0.2076
1957,19,0.1932
1958,21,0.1199
1959,19,0.1343
1960,19,0.1175
1961,19,0.1313
1962,5,0.1907
1963,5,0.1469
1964,7,0.1251
1965,24,0.2075
1966,24,0.3384
1967,24,0.3310
1968,21,0.1283
1969,19,0.1563
1970,7,0.1479
1971,7,0.1155
1972,15,0.2216
1973,24,0.2215
1974,5,0.1964
1975,5,0.2685
1976,19,0.1736
1977,11,0.2136
1978,7,0.2356
1979,7,0.2313
1980,23,0.1585
1984,5,0.2068
1985,5,0.1765
1986,5,0.1052
1987,19,0.1074
1988,7,0.1318
1989,7,0.1263
1990,24,0.1796
1991,23,0.1246
1992,23,0.1197
1993,5,0.1403
1994,7,0.1320
1995,21,0.1357
1996,0,0.2678
1997,1,0.4515
1998,24,0.2452
1999,24,0.1273
2000,7,0.1257
2001,7,0.1455
2002,5,0.1491
2003,5,0.1413
2004,5,0.1784
2005,7,0.1191
2006,7,0.1616
2007,7,0.1462
2008,7,0.1561
2009,24,0.1098
2010,7,0.1589
2011,23,0.1329
2013,11,0.3058
2014,11,0.3200
2015,30,0.2562
2017,19,0.1591
2018,19,0.1639
2019,5,0.2207
2020,19,0.1378
2021,7,0.2147
2022,7,0.1852
2023,19,0.1300
2024,24,0.1434
2025,24,0.1618
2026,25,0.1214
2027,19,0.1993
2028,8,0.1133
2029,8,0.1124
2030,5,0.1351
2031,19,0.2628
2032,23,0.1898
2033,21,0.1780
2034,9,0.1940
2035,21,0.2014
2036,19,0.1537
2037,5,0.2207
2038,19,0.2429
2039,19,0.1188
2040,19,0.2950
2041,19,0.2479
2042,19,0.2394
2043,21,0.1642
2044,19,0.1569
2045,1,0.1544
2046,24,0.2536
2048,7,0.1938
2049,19,0.1614
2050,21,0.1610
2051,8,0.1404
2052,7,0.1154
2053,24,0.1596
2054,21,0.1673
2055,7,0.1352
2056,24,0.1978
2057,7,0.1824
2058,21,0.1835
2059,24,0.1803
2060,7,0.1375
2061,7,0.1426
2062,7,0.1582
2063,7,0.1460
2064,24,0.1484
2065,24,0.1439
2066,7,0.1335
2067,24,0.1373
2068,24,0.1367
2069,24,0.2083
2070,9,0.2153
2071,8,0.7823
2072,8,0.5092
2073,8,0.1504
2074,8,0.2329
2075,8,0.7742
2076,8,0.3665
2077,19,0.1124
2078,19,0.1338
2079,19,0.1585
2080,5,0.1751
2081,5,0.2802
2082,23,0.1042
2083,8,0.1655
2084,19,0.1295
2085,0,0.1948
2086,11,0.1997
2087,1,0.2257
2088,11,0.1663
2089,24,0.1796
2090,7,0.1810
2091,11,0.1768
2092,11,0.2362
2093,7,0.1558
2094,7,0.1705
2095,7,0.2295
2096,7,0.1724
2097,7,0.2127
2098,7,0.1996
2099,24,0.1348
2100,24,0.2233
2101,24,0.1325
2102,19,0.1190
2103,24,0.1943
2104,7,0.1767
2105,19,0.1044
2106,21,0.1076
2107,5,0.1487
2108,7,0.1165
2109,24,0.2185
2110,32,0.1088
2111,7,0.1027
2112,5,0.1548
2114,7,0.1482
2115,7,0.2468
2116,24,0.2472
2118,24,0.2673
2119,24,0.3373
2120,24,0.3524
2122,18,0.1471
2123,6,0.1482
2125,0,0.2317
2126,4,0.4209
2127,4,0.2737
2128,1,0.1045
2129,32,0.1394
2131,19,0.1074
2132,21,0.1040
2133,21,0.1557
2134,15,0.1431
2135,15,0.1941
2136,7,0.1331
2137,15,0.1183
2138,19,0.1576
2139,5,0.2053
2140,19,0.1932
2141,8,0.3181
2142,16,0.1938
2143,5,0.2227
2144,19,0.2577
2145,7,0.2031
2146,8,0.1464
2147,20,0.1496
2148,1,0.2196
2149,11,0.1851
2150,11,0.3094
2151,0,0.1840
2152,7,0.1583
2153,7,0.1319
2154,7,0.1179
2155,7,0.1050
2156,7,0.1363
2157,7,0.1458
2158,7,0.1215
2159,23,0.1076
2160,30,0.1586
2161,19,0.1959
2162,5,0.1562
2163,7,0.1517
2164,19,0.1911
2165,19,0.2033
2166,19,0.1538
2167,19,0.1874
2168,19,0.1209
2170,19,0.1194
2171,11,0.1375
2172,7,0.1431
2173,7,0.1577
2174,7,0.1293
2175,24,0.1321
2176,19,0.1213
2177,7,0.1118
2178,5,0.1854
2179,5,0.1321
2180,5,0.1318
2181,5,0.1572
2182,5,0.1571
2183,7,0.1497
2184,5,0.1643
2185,7,0.1548
2186,7,0.1981
2187,7,0.1691
2188,19,0.1362
2189,5,0.2151
2190,5,0.1562
2191,5,0.1629
2192,5,0.1457
2193,5,0.1124
2194,32,0.1217
2195,24,0.2056
2196,19,0.1417
2197,19,0.1302
2198,8,0.2528
2199,8,0.4358
2200,7,0.1319
2201,19,0.1050
2202,5,0.1826
2203,5,0.2449
2204,5,0.2085
2205,7,0.1673
2206,5,0.1111
2207,5,0.2269
2208,7,0.1664
2209,19,0.1874
2210,19,0.2741
2211,19,0.2046
2212,6,0.1265
2213,24,0.1273
2214,5,0.1033
2216,5,0.1910
2217,5,0.2108
2218,5,0.1561
2219,5,0.1080
2220,7,0.1448
2222,24,0.1313
2223,24,0.2032
2224,19,0.1147
2225,8,0.3052
2226,8,0.3772
2227,8,0.2314
2228,8,0.6217
2229,8,0.2885
2230,19,0.1527
2231,19,0.1263
2232,23,0.1588
2233,19,0.1655
2234,19,0.2162
2235,19,0.2075
2236,19,0.2130
2237,5,0.2048
2238,8,0.3518
2239,9,0.2610
2240,19,0.2809
2241,19,0.1324
2242,11,0.2530
2243,0,0.1354
2244,28,0.1531
2245,8,0.1646
2247,19,0.1489
2248,19,0.1377
2249,19,0.1215
2250,2,0.1638
2251,12,0.1403
2252,9,0.1919
2253,19,0.1883
2254,7,0.1273
2255,10,0.1491
2256,21,0.2061
2257,0,0.1066
2258,21,0.1136
2259,21,0.2175
2260,19,0.1794
2261,19,0.3240
2262,21,0.2188
2263,8,0.2853
2264,8,0.5781
2265,19,0.1955
2266,7,0.1677
2267,24,0.2050
2268,24,0.4720
2269,24,0.3147
2270,5,0.1113
2271,12,0.2224
2272,5,0.1529
2273,24,0.1660
2274,9,0.1037
2275,19,0.1513
2276,5,0.2189
2277,21,0.1777
2278,24,0.1728
2279,21,0.1573
2280,9,0.1322
2281,6,0.1069
2282,24,0.1608
2283,24,0.2011
2286,21,0.1285
2287,24,0.1297
2288,19,0.1439
2289,9,0.1976
2290,19,0.1642
2291,8,0.8947
2292,8,0.5106
2293,8,0.3941
2294,8,0.7169
2295,8,0.4437
2296,8,0.1937
2297,19,0.1933
2298,19,0.1974
2299,8,0.3360
2300,8,0.2167
2301,8,0.2658
2302,11,0.2973
2303,8,0.3825
2304,8,0.1688
2305,8,0.2152
2306,8,0.3314
2307,8,0.4757
2308,8,0.3829
2309,8,0.2794
2310,8,0.5803
2311,8,0.1117
2312,21,0.1801
2313,19,0.1941
2314,19,0.2089
2315,19,0.1779
2316,8,0.2621
2317,19,0.1386
2318,8,0.2236
2319,8,0.2041
2320,19,0.2233
2321,19,0.1788
2323,19,0.1888
2324,24,0.1675
2325,21,0.1378
2326,8,0.2237
2327,24,0.3064
2328,19,0.1658
2329,19,0.1940
2330,9,0.1884
2331,8,0.4615
2332,8,0.3835
2333,11,0.1938
2334,9,0.1289
2335,9,0.1550
2336,8,0.2494
2337,21,0.1544
2338,7,0.1648
2339,5,0.1598
2340,19,0.1296
2341,24,0.1673
2342,11,0.1654
2343,8,0.2586
2344,8,0.2020
2345,1,0.2601
2346,8,0.4088
2347,8,0.1355
2348,22,0.1114
2349,6,0.1184
2350,24,0.1715
2351,21,0.1540
2352,7,0.1087
2353,21,0.1448
2354,7,0.2340
2355,21,0.2724
2356,21,0.1423
2357,19,0.1599
2358,8,0.8341
2359,8,0.6656
2360,24,0.1779
2361,21,0.1758
2363,24,0.2426
2364,24,0.3856
2365,24,0.1352
2367,5,0.1312
2368,7,0.1108
2369,24,0.2050
2370,30,0.1513
2371,20,0.1555
2372,19,0.1931
2373,8,0.8835
2374,8,0.8778
2375,8,0.5057
2376,8,0.2914
2377,8,0.7555
2378,8,0.6839
2379,8,0.3839
2380,8,0.4556
2381,8,0.5214
2382,8,0.5697
2383,8,0.5593
2384,8,0.5636
2385,8,0.8492
2386,8,0.2086
2387,21,0.1751
2388,24,0.2672
2389,8,0.2895
2390,16,0.2444
2391,16,0.3625
2392,0,0.3456
2393,0,0.3173
2394,4,0.7924
2395,0,0.1923
2398,19,0.1054
2399,7,0.2092
2400,8,0.2439
2401,8,0.4119
2402,19,0.1213
2404,5,0.2102
2405,8,0.1906
2406,0,0.3183
2407,0,0.4086
2408,0,0.1374
2409,11,0.3172
2410,11,0.1645
2411,6,0.1102
2413,21,0.1955
2414,7,0.1537
2415,19,0.1347
2417,5,0.1229
2418,5,0.1391
2419,5,0.1200
2420,5,0.1850
2421,5,0.2578
2422,19,0.1246
2423,4,0.6283
2424,8,0.5044
2425,4,0.5278
2426,6,0.1680
2427,19,0.1816
2428,19,0.1898
2429,8,0.2944
2430,19,0.1046
2431,21,0.1727
2432,0,0.2283
2433,1,0.1811
2434,21,0.2273
2435,21,0.1686
2436,5,0.2583
2437,5,0.2225
2438,5,0.1623
2439,7,0.1505
2440,7,0.2457
2441,7,0.1697
2442,19,0.1935
2443,19,0.1860
2444,7,0.1740
2445,21,0.1693
2446,4,0.3243
2447,4,0.3366
2448,19,0.1322
2449,24,0.2035
2450,7,0.1739
2451,8,0.4644
2452,8,0.3572
2453,8,0.4188
2454,8,0.4188
2455,8,0.7025
2456,8,0.7176
2457,8,0.1520
2458,8,0.2894
2459,8,0.7719
2460,8,0.6503
2461,19,0.1233
2462,8,0.2744
2463,8,0.7657
2464,8,0.4179
2465,23,0.1738
2466,19,0.1965
2467,19,0.1763
2468,10,0.1243
2469,9,0.1668
2470,5,0.3255
2471,5,0.3162
2472,7,0.1879
2473,7,0.1647
2474,11,0.2095
2475,11,0.1974
2476,19,0.1364
2477,11,0.1894
2478,21,0.1935
2479,7,0.1418
2480,19,0.1300
2481,5,0.1202
2482,5,0.1726
2483,32,0.1099
2484,7,0.1292
2485,5,0.2095
2486,5,0.2124
2487,5,0.1554
2488,5,0.1272
2489,7,0.1408
2490,19,0.1576
2491,7,0.1957
2492,21,0.1502
2493,24,0.2470
2494,24,0.3368
2495,21,0.1635
2496,19,0.2071
2497,7,0.1582
2498,19,0.1277
2499,24,0.2038
2500,19,0.1569
2502,19,0.1122
2505,5,0.1816
2506,7,0.1994
2507,15,0.1177
2508,5,0.2309
2509,24,0.2104
2510,1,0.2691
2511,0,0.3754
2512,8,0.9028
2513,8,0.3126
2514,19,0.1746
2515,16,0.2150
2516,8,0.6692
2517,8,0.7045
2518,8,0.2331
2519,8,0.4142
2520,8,0.6498
2521,8,0.6485
2522,8,0.3488
2523,24,0.1489
2524,24,0.5735
2525,24,0.4207
2526,24,0.3776
2527,5,0.1484
2528,5,0.1067
2529,24,0.1105
2530,24,0.2978
2531,24,0.1903
2532,19,0.1245
2533,5,0.2311
2534,7,0.1522
2535,7,0.1804
2536,24,0.1211
2538,4,0.1829
2541,5,0.1131
2542,7,0.1547
2543,21,0.1337
2544,21,0.1296
2546,20,0.1625
2548,7,0.1772
2549,24,0.1215
2550,21,0.1028
2551,11,0.1050
2552,24,0.1890
2553,8,0.8188
2554,8,0.4105
2555,21,0.1303
2556,8,0.1040
2557,24,0.1532
2558,8,0.6096
2559,8,0.5192
2560,24,0.1272
2562,24,0.1127
2563,21,0.1731
2564,7,0.1735
2565,7,0.1375
2566,21,0.1210
2567,23,0.1419
2568,19,0.1978
2569,19,0.2790
2570,19,0.2029
2571,7,0.2015
2572,5,0.2247
2573,19,0.1671
2574,19,0.1795
2575,23,0.1212
2576,19,0.1799
2577,19,0.1912
2578,19,0.1890
2579,7,0.1621
2580,19,0.2825
2581,19,0.1571
2582,19,0.1927
2583,19,0.2149
2584,8,0.1693
2585,19,0.1783
2586,19,0.1618
2587,7,0.2112
2588,7,0.2145
2589,7,0.2032
2591,19,0.1241
2592,7,0.1134
2593,1,0.1204
2594,24,0.1960
2595,24,0.1164
2596,19,0.1417
2598,19,0.1319
2599,19,0.1579
2600,7,0.1698
2601,7,0.1652
2602,23,0.1085
2603,19,0.1393
2604,19,0.2235
2605,9,0.1964
2606,19,0.1417
2607,7,0.1372
2608,1,0.3231
2609,11,0.2196
2610,11,0.1998
2611,11,0.2296
2612,19,0.1136
2613,19,0.2540
2614,5,0.1893
2615,19,0.1299
2616,19,0.1340
2617,5,0.2794
2618,5,0.1865
2619,19,0.1568
2620,5,0.1623
2621,5,0.1614
2623,5,0.1592
2625,19,0.1556
2626,7,0.2227
2627,7,0.2402
2628,24,0.1699
2629,24,0.3795
2630,7,0.1767
2631,21,0.1660
2632,21,0.1382
2633,7,0.1752
2634,7,0.1211
2635,21,0.1437
2636,7,0.1356
2637,21,0.1205
2638,19,0.1222
2639,7,0.2041
2640,7,0.1618
2641,5,0.2031
2642,5,0.2389
2643,7,0.1851
2644,0,0.1902
2645,11,0.2821
2646,19,0.1519
2647,15,0.1743
2648,7,0.1858
2649,19,0.1289
2651,5,0.1958
2652,5,0.1615
2653,13,0.1060
2654,21,0.1549
2655,11,0.4172
2656,11,0.3510
2657,11,0.2580
2658,11,0.1217
2659,19,0.2028
2660,7,0.1586
2661,7,0.1901
2662,5,0.2308
2663,7,0.1587
2664,7,0.1565
2665,7,0.1455
2666,24,0.2527
2667,24,0.2083
2668,30,0.1245
2669,8,0.2899
2670,8,0.3798
2671,19,0.1555
2672,19,0.1667
2673,5,0.2253
2674,12,0.1817
2676,5,0.2095
2677,19,0.2002
2678,19,0.3397
2679,7,0.4201
2680,7,0.1577
2681,32,0.1275
2682,0,0.1323
2683,21,0.2100
2684,19,0.2233
2685,19,0.2288
2686,24,0.2239
2687,0,0.2739
2688,0,0.1944
2689,21,0.3261
2690,19,0.2773
2691,19,0.2289
2692,19,0.2073
2693,8,0.7045
2694,8,0.6729
2695,8,0.2477
2696,8,0.5172
2697,8,0.3767
2698,8,0.2218
2699,8,0.2618
2700,24,0.3795
2701,7,0.2557
2702,7,0.1716
2703,21,0.1799
2704,19,0.2148
2705,21,0.2041
2706,21,0.1033
2707,0,0.1047
2708,0,0.1046
2709,7,0.1661
2710,7,0.1234
2711,21,0.1634
2712,21,0.1397
2713,21,0.1581
2714,24,0.1626
2715,19,0.1599
2716,19,0.1655
2717,5,0.1480
2718,5,0.1517
2719,21,0.1209
2720,24,0.2175
2721,19,0.1146
2722,24,0.2439
2723,21,0.1933
2724,21,0.2020
2725,21,0.2855
2726,19,0.1523
2728,7,0.1604
2729,21,0.2375
2730,7,0.1815
2731,21,0.1345
2732,21,0.1295
2733,21,0.1450
2734,24,0.1450
2735,7,0.1671
2738,7,0.1500
2739,21,0.1905
2740,21,0.1522
2741,7,0.1084
2744,7,0.1683
2745,7,0.2267
2746,0,0.2990
2747,11,0.2844
2748,21,0.2136
2749,24,0.2109
2750,21,0.2237
2751,0,0.1330
2752,0,0.1698
2753,19,0.2507
2754,19,0.2367
2755,24,0.2958
2756,24,0.1880
2757,21,0.1776
2758,7,0.2077
2759,19,0.1824
2760,24,0.3027
2761,24,0.2822
2762,11,0.1686
2763,21,0.1192
2764,19,0.1448
2765,7,0.1587
2766,5,0.1102
2767,11,0.3904
2768,7,0.2327
2769,21,0.1322
2770,21,0.1940
2771,19,0.2414
2772,19,0.1711
2773,24,0.2033
2774,24,0.1670
2775,21,0.1945
2776,21,0.1840
2777,24,0.2007
2778,19,0.2324
2779,7,0.1338
2780,21,0.1081
2781,7,0.1193
2783,0,0.3747
2784,11,0.3566
2785,11,0.1249
2786,24,0.1309
2787,32,0.1212
2789,24,0.2035
2790,21,0.1861
2791,7,0.1733
2792,21,0.1228
2793,21,0.1652
2794,6,0.1297
2795,5,0.1414
2796,19,0.1200
2797,19,0.2018
2799,5,0.1274
2800,0,0.2539
2801,0,0.2661
2803,19,0.2425
2804,24,0.2302
2805,19,0.2105
2806,19,0.2725
2807,19,0.1911
2808,7,0.2081
2809,7,0.2112
2810,24,0.1141
2812,24,0.1287
2813,21,0.1431
2814,21,0.1821
2815,1,0.2812
2816,7,0.1451
2817,21,0.2273
2818,24,0.2379
2819,24,0.1736
2820,19,0.1535
2821,21,0.1316
2822,21,0.1556
2823,24,0.2500
2824,24,0.4434
2826,8,0.5323
2827,8,0.9232
2828,8,0.2903
2829,8,0.6991
2831,16,0.1757
2832,8,0.7636
2833,16,0.3182
2834,8,0.8210
2835,8,0.5238
2836,0,0.8908
2837,0,0.6919
2838,18,0.1525
2839,8,0.5724
2840,7,0.1839
2842,7,0.1152
2843,29,0.1101
2844,8,0.6688
2845,7,0.2629
2846,21,0.1491
2847,24,0.1559
2848,8,0.2594
2849,19,0.1711
2850,24,0.2021
2851,24,0.1776
2852,19,0.2771
2853,19,0.1958
2854,24,0.1505
2855,7,0.1617
2856,7,0.1919
2857,11,0.2298
2858,7,0.1962
2859,7,0.1738
2860,21,0.2196
2861,11,0.2203
2862,11,0.2278
2863,0,0.3293
2864,0,0.3634
2865,11,0.1241
2866,7,0.2090
2867,21,0.1440
2868,7,0.1562
2869,7,0.1237
2870,21,0.1519
2871,21,0.1972
2872,19,0.1234
2873,21,0.1797
2874,21,0.1289
2875,21,0.1578
2876,21,0.1378
2877,21,0.1694
2878,24,0.1813
2879,0,0.1936
2880,8,0.1772
2881,21,0.1156
2882,7,0.2199
2883,23,0.1992
2884,10,0.1665
2885,24,0.2656
2886,24,0.2863
2887,21,0.1833
2888,24,0.1580
2889,24,0.3172
2890,24,0.2665
2891,22,0.1372
2892,11,0.2772
2893,7,0.2803
2894,7,0.2450
2895,11,0.3995
2896,11,0.3422
2897,0,0.4023
2898,30,0.2619
2899,21,0.1326
2900,21,0.1872
2901,21,0.1861
2902,21,0.2130
2903,24,0.2267
2904,21,0.1322
2905,11,0.3047
2906,0,0.2493
2907,8,0.1938
2908,23,0.1970
2909,23,0.1156
2910,24,0.1303
2911,24,0.1405
2912,19,0.2279
2913,7,0.2161
2914,19,0.2134
2915,19,0.1331
2916,12,0.1087
2917,19,0.1735
2918,8,0.2427
2919,21,0.2502
2920,21,0.2257
2921,21,0.1419
2922,24,0.2800
2923,24,0.3393
2924,21,0.1761
2925,24,0.1652
2926,24,0.2187
2927,21,0.2160
2928,7,0.2580
2929,21,0.1758
2930,21,0.2323
2931,21,0.2049
2932,0,0.1198
2933,19,0.1224
2934,21,0.1545
2935,21,0.1493
2936,24,0.1689
2937,23,0.1087
2938,19,0.1141
2939,19,0.2448
2940,7,0.1852
2941,11,0.2085
2942,21,0.2173
2943,7,0.2307
2944,24,0.1896
2945,7,0.2046
2946,24,0.2020
2947,19,0.1657
2948,0,0.1598
2949,7,0.1909
2950,19,0.1367
2951,24,0.1684
2952,24,0.1802
2953,24,0.1454
2954,21,0.1502
2955,7,0.1500
2956,21,0.1263
2957,8,0.1143
2958,24,0.2603
2959,24,0.2505
2960,7,0.1874
2961,16,0.1383
2963,7,0.1188
2964,11,0.1554
2965,21,0.2282
2966,19,0.2027
2967,0,0.1281
2968,28,0.1606
2969,19,0.1863
2970,19,0.2398
2971,24,0.1737
2972,7,0.1607
2973,21,0.1380
2974,24,0.3943
2975,24,0.1847
2976,7,0.1456
2977,7,0.1472
2979,19,0.1419
2980,6,0.1369
2981,21,0.1197
2982,21,0.1916
2983,21,0.1949
2984,7,0.1688
2985,0,0.1718
2986,11,0.1310
2987,7,0.1685
2988,7,0.2337
2989,24,0.2201
2990,7,0.2114
2991,7,0.2886
2992,19,0.1579
2993,8,0.1191
2994,21,0.1461
2995,21,0.2994
2996,21,0.2753
2997,21,0.1161
2998,0,0.1307
2999,11,0.1504
3001,15,0.1210
3002,7,0.2408
3003,21,0.1395
3004,24,0.2251
3005,24,0.1883
3006,24,0.1627
3007,19,0.1703
3008,19,0.1597
3009,24,0.2587
3010,21,0.2188
3011,24,0.1698
3012,11,0.1971
3013,0,0.3465
3014,0,0.3802
3015,11,0.2223
3016,21,0.1780
3017,0,0.2371
3018,8,0.3635
3019,8,0.4937
3020,24,0.1878
3021,7,0.1642
3022,24,0.4576
3023,24,0.3094
3024,21,0.1570
3025,30,0.1576
3026,30,0.1755
3027,19,0.1188
3028,5,0.1681
3029,0,0.1483
3030,24,0.1986
3031,7,0.1639
3032,19,0.1414
3034,31,0.1119
3035,15,0.1695
3038,21,0.1821
3039,24,0.1612
3041,5,0.1474
3042,24,0.1062
3046,21,0.1231
3047,24,0.2820
3048,5,0.1117
3049,12,0.1372
3050,2,0.3269
3055,21,0.1059
3058,21,0.1043
3062,8,0.1733
3063,8,0.1078
3066,8,0.1033
3067,21,0.1057
3069,21,0.1741
3070,7,0.1611
3071,24,0.1404
3072,21,0.1626
3073,24,0.1474
3074,8,0.3346
3075,11,0.1538
3076,30,0.2047
3077,30,0.1977
3078,0,0.1841
3079,0,0.4196
3080,0,0.2605
3081,0,0.3629
3082,0,0.2193
3083,16,0.1290
3084,21,0.1357
3085,21,0.1690
3086,21,0.1177
3087,21,0.1478
3090,19,0.1150
3091,5,0.1359
3092,5,0.1861
3093,7,0.1292
3095,12,0.1061
3096,5,0.1428
3098,12,0.1321
3099,5,0.1126
3101,0,0.1265
3103,5,0.1266
3104,24,0.1398
3106,5,0.1577
3107,5,0.1446
3110,31,0.1689
3112,7,0.1224
3113,7,0.1331
3115,9,0.1610
3116,19,0.1759
3117,24,0.1376
3118,7,0.1151
3119,24,0.1617
3120,8,0.1538
3121,8,0.5786
3122,30,0.1055
3123,24,0.1138
3124,21,0.1570
3126,8,0.1814
3127,1,0.1822
3128,30,0.1116
3131,5,0.1259
3133,24,0.1365
3134,24,0.3663
3135,21,0.1461
3136,1,0.3599
3137,1,0.4639
3138,8,0.3014
3139,24,0.2142
3140,7,0.1891
3141,5,0.1217
3142,19,0.1885
3143,19,0.1577
3144,28,0.1719
3146,7,0.1530
3147,24,0.1179
3148,24,0.1043
3149,7,0.1831
3152,23,0.1155
3153,8,0.6832
3154,8,0.5068
3155,8,0.5792
3156,8,0.7795
3157,8,0.1604
3158,21,0.1025
3159,20,0.1097
3160,8,0.2856
3161,8,0.6212
3162,8,0.1177
3163,21,0.1493
3164,24,0.1203
3165,8,0.1448
3166,8,0.9792
3167,8,0.9579
3168,7,0.2010
3169,24,0.3609
3170,19,0.2231
3171,8,0.1809
3172,21,0.1116
3173,32,0.1303
3174,12,0.1543
3175,14,0.1225
3176,21,0.2066
3177,7,0.1472
3179,7,0.2011
3181,16,0.1056
3182,24,0.2194
3183,24,0.1573
3184,1,0.1420
3186,18,0.1339
3187,24,0.1658
3188,0,0.4772
3189,0,0.5068
3190,11,0.1773
3191,0,0.2480
3192,21,0.1996
3193,19,0.1907
3194,21,0.2143
3195,21,0.1642
3196,21,0.1419
3197,0,0.1360
3198,0,0.1173
3199,0,0.1228
3200,21,0.1254
3201,19,0.1132
3202,19,0.1303
3203,19,0.2483
3204,7,0.1141
3205,7,0.1655
3206,7,0.1693
3207,21,0.2218
3208,19,0.1981
3209,19,0.1313
3210,7,0.2777
3211,21,0.1839
3212,19,0.1461
3213,21,0.1976
3214,11,0.2992
3215,11,0.2984
3216,7,0.1342
3217,7,0.1319
3218,1,0.1278
3219,1,0.1357
3220,19,0.1635
3221,7,0.1705
3222,7,0.1470
3223,21,0.1363
3224,24,0.2709
3225,19,0.1997
3226,19,0.1410
3227,19,0.1493
3228,21,0.1639
3229,1,0.1087
3230,11,0.2830
3231,7,0.1642
3232,11,0.1631
3233,23,0.1357
3234,16,0.2585
3235,8,0.6303
3236,6,0.1051
3237,8,0.3032
3238,4,0.5080
3239,8,0.2132
3240,8,0.1775
3241,8,0.4352
3242,8,0.5363
3244,8,0.1274
3245,4,0.5420
3246,0,0.2788
3247,21,0.1177
3248,24,0.1758
3250,12,0.1156
3251,5,0.1111
3252,6,0.1116
3253,19,0.1229
3254,19,0.1932
3255,7,0.1978
3256,7,0.1797
3257,24,0.2226
3258,11,0.1667
3259,11,0.2771
3260,21,0.2327
3261,21,0.1820
3262,5,0.1818
3263,21,0.1718
3264,21,0.1490
3265,1,0.1191
3266,11,0.1943
3267,11,0.1671
3268,11,0.2433
3269,24,0.2172
3270,24,0.1478
3271,19,0.2475
3272,24,0.2255
3273,7,0.2410
3274,7,0.1298
3275,24,0.1580
3276,24,0.1334
3277,24,0.1887
3278,7,0.2228
3279,7,0.1945
3280,7,0.1572
3281,24,0.2430
3282,7,0.2029
3283,24,0.4009
3284,24,0.1819
3285,23,0.1428
3286,19,0.1379
3287,24,0.1320
3288,7,0.1415
3289,19,0.1157
3290,21,0.1062
3292,24,0.1657
3293,24,0.2375
3294,7,0.1843
3295,0,0.2501
3296,24,0.2654
3297,24,0.2812
3300,8,0.3623
3301,6,0.1246
3302,24,0.1721
3303,19,0.1170
3304,24,0.2157
3305,21,0.1530
3307,24,0.1440
3308,7,0.1067
3309,21,0.1178
3310,7,0.1635
3311,7,0.1326
3312,7,0.1183
3313,15,0.1355
3315,21,0.1314
3316,21,0.1310
3317,7,0.2077
3318,7,0.2522
3319,7,0.1657
3320,30,0.1055
3321,11,0.1132
3324,21,0.1194
3325,29,0.1122
3326,29,0.1233
3328,24,0.1947
3329,7,0.1198
3330,24,0.1058
3332,5,0.1053
3335,5,0.1421
3338,5,0.1176
3339,5,0.1660
3340,8,0.1711
3341,8,0.1950
3342,21,0.1042
3343,21,0.1703
3344,7,0.1554
3345,23,0.1034
3346,8,0.5654
3347,30,0.1169
3348,21,0.1987
3349,19,0.1499
3350,21,0.1429
3351,19,0.3118
3352,24,0.1850
3353,21,0.2523
3354,19,0.2092
3355,7,0.1538
3356,7,0.1868
3357,7,0.2041
3358,19,0.1828
3359,19,0.1600
3360,21,0.2232
3361,21,0.2245
3362,21,0.1873
3363,24,0.3319
3364,21,0.1740
3365,21,0.1911
3366,5,0.1912
3367,7,0.1740
3368,21,0.1919
3369,7,0.1579
3370,7,0.1713
3371,7,0.1615
3372,7,0.1796
3373,7,0.1342
3374,21,0.1425
3375,24,0.2787
3376,24,0.2122
3377,21,0.1248
3378,21,0.1398
3379,7,0.1894
3380,24,0.1805
3383,21,0.1186
3385,7,0.1224
3386,21,0.1329
3387,24,0.1899
3388,19,0.1518
3389,19,0.3040
3390,8,0.1369
3391,7,0.1947
3392,1,0.2698
3393,11,0.2976
3394,21,0.2361
3395,21,0.2671
3396,21,0.1930
3397,21,0.1259
3398,19,0.1516
3399,24,0.1621
3400,24,0.1848
3401,19,0.1386
3402,19,0.1726
3403,6,0.1164
3407,1,0.1699
3408,7,0.1744
3409,7,0.1908
3410,21,0.1849
3411,5,0.1351
3412,24,0.1660
3413,21,0.1774
3414,7,0.1429
3415,7,0.2019
3416,21,0.1667
3417,21,0.1578
3418,24,0.1703
3419,24,0.2304
3420,24,0.1221
3421,24,0.2021
3422,7,0.1848
3423,24,0.2127
3424,24,0.2734
3425,7,0.1945
3427,25,0.1355
3428,7,0.2065
3429,7,0.1940
3430,21,0.2573
3431,16,0.1081
3433,7,0.2330
3434,7,0.2557
3435,24,0.2604
3436,24,0.1443
3438,21,0.1559
3439,0,0.3945
3440,0,0.5382
3441,21,0.1640
3442,7,0.1403
3443,19,0.1109
3444,21,0.1060
3445,24,0.2739
3446,24,0.1380
3447,7,0.1771
3448,7,0.2189
3449,7,0.2031
3450,24,0.2129
3451,7,0.1923
3452,7,0.1884
3453,24,0.1191
3454,24,0.3125
3455,21,0.1584
3456,24,0.2048
3457,0,0.1402
3459,7,0.1834
3460,19,0.2137
3461,21,0.2111
3462,24,0.2778
3463,7,0.1944
3464,24,0.1803
3465,0,0.1333
3466,21,0.1475
3467,19,0.2103
3468,16,0.1665
3469,11,0.1912
3470,24,0.2307
3471,21,0.1471
3472,11,0.1725
3473,7,0.2272
3474,21,0.2152
3475,5,0.1162
3476,5,0.1521
3477,19,0.1841
3478,19,0.1436
3479,19,0.1565
3480,8,0.3466
3481,19,0.1233
3482,24,0.2015
3483,8,0.2841
3484,19,0.2102
3485,19,0.1753
3487,5,0.1138
3488,7,0.1634
3489,21,0.1608
3490,7,0.1506
3491,7,0.1424
3492,7,0.1576
3493,7,0.1598
3494,21,0.1551
3495,5,0.1281
3496,19,0.1438
3497,19,0.1524
3498,5,0.3466
3499,12,0.2066
3500,0,0.1128
3501,9,0.1816
3502,19,0.1442
3503,21,0.1571
3504,5,0.2060
3505,19,0.2404
3506,19,0.2186
3507,21,0.1575
3508,24,0.3891
3509,7,0.1625
3510,5,0.1899
3511,19,0.1652
3512,6,0.1436
3513,5,0.1872
3514,9,0.1818
3515,21,0.1774
3516,5,0.2318
3517,5,0.2624
3518,16,0.1951
3519,8,0.5505
3520,8,0.4667
3521,9,0.6871
3522,9,0.4644
3523,8,0.3545
3524,19,0.1577
3525,31,0.1032
3526,4,0.7993
3527,4,0.9475
3528,9,0.1636
3530,8,0.1378
3531,13,0.1441
3532,13,0.1125
3533,13,0.1719
3534,14,0.1345
3536,7,0.1316
3537,7,0.1536
3538,19,0.1035
3539,19,0.1539
3540,5,0.1582
3541,5,0.3452
3542,5,0.1325
3543,21,0.1455
3544,24,0.1980
3545,5,0.1161
3547,21,0.1737
3548,8,0.2464
3549,0,0.1967
3550,1,0.1036
3551,7,0.1061
3552,24,0.1906
3553,24,0.2882
3554,8,0.5674
3555,0,0.4470
3556,5,0.1285
3559,24,0.1749
3560,19,0.1757
3561,5,0.1774
3562,24,0.1117
3564,8,0.1667
3565,8,0.6523
3566,21,0.1571
3568,24,0.1145
3569,21,0.1163
3570,8,0.3010
3571,8,0.7513
3572,8,0.2620
3573,24,0.1714
3575,22,0.1225
3576,24,0.2638
3577,7,0.1859
3578,24,0.2773
3579,24,0.3112
3580,24,0.1794
3581,8,0.3178
3582,8,0.4384
3583,8,0.1468
3584,7,0.1596
3585,7,0.1456
3586,7,0.1121
3587,8,0.2520
3588,8,0.1526
3589,8,0.1443
3590,7,0.1353
3591,0,0.1157
3592,11,0.3710
3593,8,0.3787
3594,8,0.4446
3595,11,0.1673
3596,21,0.1193
3597,30,0.1035
3598,16,0.1528
3599,8,0.3361
3601,7,0.1108
3603,24,0.1398
3604,1,0.1302
3605,11,0.1175
3606,7,0.1195
3607,21,0.1383
3608,21,0.1985
3609,24,0.2483
3610,19,0.1191
3611,21,0.1480
3612,24,0.1976
3613,8,0.1885
3614,8,0.1991
3615,9,0.1840
3616,21,0.1689
3617,21,0.1233
3618,5,0.1886
3619,24,0.1669
3620,19,0.1543
3621,8,0.1709
3622,24,0.2736
3623,24,0.1615
3624,21,0.1165
3625,21,0.1416
3626,8,0.7514
3627,8,0.7814
3628,8,0.1486
3629,8,0.1779
3630,8,0.1744
3632,19,0.1389
3633,4,0.1819
3634,4,0.7061
3635,0,0.1149
3636,5,0.1165
3637,9,0.1562
3638,23,0.1851
3641,5,0.1393
3642,7,0.1330
3643,19,0.2075
3644,5,0.2193
3646,24,0.2048
3647,19,0.1315
3648,19,0.1052
3649,21,0.2092
3650,21,0.1561
3651,7,0.1516
3652,5,0.2639
3653,7,0.1601
3654,7,0.1441
3655,21,0.1262
3656,7,0.1067
3657,7,0.1066
3658,23,0.1052
3659,5,0.1113
3660,19,0.1484
3661,12,0.1591
3663,19,0.1833
3664,5,0.1625
3665,19,0.2582
3666,19,0.4518
3667,19,0.2842
3668,19,0.1404
3669,19,0.1811
3670,8,0.2048
3671,8,0.3349
3672,19,0.1849
3673,24,0.1942
3674,24,0.4122
3675,16,0.2584
3676,16,0.1661
3677,19,0.1815
3678,9,0.2366
3679,8,0.2180
3680,19,0.2831
3681,19,0.2026
3682,9,0.1605
3683,19,0.1828
3684,19,0.3144
3685,19,0.2482
3686,24,0.2076
3687,19,0.1946
3688,7,0.1585
3689,21,0.1051
3690,8,0.1976
3691,0,0.5127
3692,1,0.1980
3693,21,0.1463
3694,21,0.2373
3695,5,0.2814
3696,19,0.1937
3697,5,0.1498
3698,5,0.2356
3699,5,0.1282
3700,19,0.1781
3701,5,0.2262
3702,5,0.1915
3703,5,0.2368
3704,23,0.1090
3705,5,0.1343
3706,24,0.1402
3707,24,0.2869
3708,24,0.5533
3709,24,0.5630
3710,21,0.1274
3711,19,0.2963
3712,19,0.3430
3713,24,0.3273
3714,24,0.3162
3715,19,0.1582
3716,5,0.1755
3717,7,0.2085
3718,8,0.1408
3719,8,0.2729
3720,19,0.1974
3721,19,0.3180
3722,19,0.2125
3723,19,0.1585
3724,8,0.1957
3725,23,0.1902
3726,19,0.2611
3727,21,0.2252
3728,21,0.2497
3729,21,0.2166
3730,21,0.2170
3731,24,0.2668
3732,21,0.2359
3733,21,0.2457
3734,21,0.1865
3735,21,0.1846
3736,7,0.1207
3737,0,0.1128
3738,31,0.1490
3741,0,0.1907
3743,4,0.1427
3744,0,0.1713
3745,7,0.1511
3746,21,0.2429
3747,21,0.2159
3748,11,0.1839
3750,0,0.1039
3752,7,0.2075
3754,4,0.1310
3755,7,0.1305
3757,0,0.1072
3758,21,0.1127
3759,33,0.1927
3760,28,0.1612
3761,12,0.1816
3762,28,0.1362
3763,0,0.1397
3765,19,0.1624
3766,7,0.1846
3767,24,0.1250
3768,33,0.1525
3769,32,0.1763
3770,21,0.1144
3772,0,0.1816
3773,11,0.1918
3774,21,0.1445
3775,21,0.1168
3776,7,0.1114
3777,21,0.1124
3778,24,0.1289
3780,7,0.1496
3781,21,0.1361
3783,24,0.1205
3784,21,0.1075
3785,1,0.1160
3788,30,0.1547
3789,21,0.1665
3790,0,0.3635
3791,0,0.2848
3792,24,0.1077
3794,8,0.5329
3795,8,0.5284
3797,24,0.1066
3798,21,0.1176
3799,24,0.1187
3800,7,0.1804
3801,7,0.1385
3802,24,0.1201
3803,24,0.1251
3804,30,0.1134
3807,24,0.1066
3808,24,0.1058
3809,24,0.1150
3810,8,0.2517
3811,8,0.3170
3812,7,0.1110
3814,24,0.2118
3815,24,0.1596
3817,21,0.1197
3819,24,0.1042
3821,6,0.1033
3822,7,0.1617
3823,24,0.2028
3824,24,0.1347
3827,8,0.1208
3828,1,0.1193
3829,7,0.1466
3830,24,0.1054
3831,24,0.1421
3833,5,0.1273
3834,24,0.1776
3835,7,0.1641
3836,21,0.1347
3837,11,0.2250
3838,11,0.2493
3839,8,0.7404
3840,8,0.3146
3841,7,0.1575
3843,24,0.1171
3844,24,0.2031
3845,8,0.5440
3846,8,0.5547
3847,15,0.1257
3849,24,0.1863
3850,24,0.2484
3851,19,0.1734
3852,19,0.2234
3853,24,0.1649
3856,8,0.1824
3857,30,0.1118
3858,24,0.1293
3859,24,0.1215
3861,8,0.6087
3862,8,0.1085
3863,7,0.1637
3864,24,0.1067
3865,24,0.1165
3866,11,0.1717
3868,0,0.2587
3869,11,0.1906
3872,13,0.1780
3873,8,0.5755
3874,0,0.1575
3875,24,0.1918
3876,24,0.1511
3877,22,0.2017
3878,30,0.1028
3879,7,0.1090
3880,8,0.5223
3881,4,0.1908
3882,1,0.1479
3883,7,0.1206
3884,30,0.1340
3885,30,0.1067
3886,11,0.1815
3887,21,0.1792
3888,21,0.1803
3889,30,0.1562
3890,30,0.1919
3891,1,0.1156
3892,21,0.1889
3893,21,0.2324
3894,24,0.3994
3895,24,0.1598
3896,21,0.1858
3897,21,0.2379
3898,24,0.2264
3899,24,0.1917
3901,0,0.1032
3902,0,0.1076
3903,32,0.1439
3904,31,0.1029
3905,0,0.1156
3909,21,0.1651
3911,21,0.1080
3912,30,0.1045
3913,25,0.1280
3914,25,0.1421
3915,19,0.2246
3917,15,0.1277
3918,24,0.5437
3919,23,0.1206
3920,19,0.1192
3921,7,0.1410
3922,7,0.1759
3923,7,0.1895
3924,7,0.2017
3926,15,0.1057
3927,7,0.1611
3929,9,0.3086
3930,7,0.1839
3931,19,0.1205
3932,7,0.1367
3933,8,0.1959
3934,8,0.9835
3935,8,0.8753
3936,24,0.1792
3937,7,0.1852
3938,24,0.1224
3941,21,0.1095
3942,21,0.1188
3944,25,0.1179
3946,21,0.1165
3947,8,0.1837
3948,16,0.1597
3949,0,0.1056
3951,24,0.1677
3952,24,0.1152
3955,5,0.1338
3957,21,0.1224
3958,24,0.2045
3959,7,0.1083
3960,24,0.1481
3961,21,0.1526
3962,21,0.1214
3964,7,0.1327
3966,19,0.1168
3967,24,0.3283
3969,16,0.1858
3970,7,0.1229
3971,7,0.1284
3972,0,0.1188
3973,5,0.1148
3974,7,0.1157
3975,21,0.1356
3976,21,0.1752
3977,21,0.1333
3979,21,0.1342
3980,21,0.1378
3981,7,0.1363
3982,7,0.1319
3983,21,0.1426
3984,7,0.1696
3985,5,0.2020
3986,7,0.1648
3987,7,0.1467
3989,7,0.1468
3990,7,0.1453
3991,7,0.1239
3992,21,0.1302
3993,21,0.1089
3994,21,0.1129
3995,7,0.1394
3996,7,0.1499
3997,21,0.1505
3998,21,0.1346
3999,7,0.1437
4000,7,0.1652
4001,7,0.1480
4002,7,0.1370
4003,7,0.1523
4004,7,0.1049
4005,19,0.1204
4006,19,0.2053
4007,19,0.1810
4008,5,0.1610
4009,5,0.3204
4010,5,0.2068
4011,5,0.1742
4012,7,0.1240
4015,21,0.1032
4016,21,0.1184
4017,21,0.1297
4019,7,0.1203
4020,0,0.3499
4021,8,0.2950
4022,21,0.1177
4023,21,0.1105
4024,21,0.1270
4025,21,0.1282
4026,7,0.1211
4027,7,0.1491
4028,7,0.1248
4029,21,0.1423
4030,6,0.1134
4031,3,0.1563
4032,0,0.1312
4033,30,0.1138
4034,25,0.1500
4036,21,0.1360
4037,0,0.1297
4038,7,0.2825
4039,19,0.2317
4040,19,0.2454
4041,19,0.1569
4042,21,0.1325
4043,21,0.1161
4044,5,0.1169
4046,7,0.1156
4047,21,0.1154
4048,21,0.1326
4049,7,0.1108
4050,21,0.1313
4051,21,0.1254
4052,21,0.1228
4053,21,0.1359
4054,7,0.1262
4055,21,0.1276
4056,21,0.1148
4057,21,0.1210
4058,21,0.1229
4059,21,0.1164
4060,21,0.1164
4061,21,0.1379
4062,21,0.1224
4064,7,0.1142
4065,21,0.1070
4066,7,0.1283
4067,21,0.1217
4068,21,0.1065
4069,7,0.1229
4070,9,0.1329
4071,9,0.1440
4072,7,0.1253
4074,7,0.1388
4075,21,0.1585
4076,7,0.1549
4077,21,0.1119
4079,0,0.3960
4080,0,0.2380
4083,7,0.1030
4085,21,0.1051
4086,21,0.1210
4087,21,0.1352
4088,21,0.1270
4089,21,0.1457
4090,21,0.1275
4091,7,0.1275
4092,21,0.1313
4093,21,0.1380
4094,21,0.1563
4095,7,0.1327
4096,7,0.1169
4098,5,0.1508
4099,5,0.1231
4100,5,0.1175
4101,7,0.1440
4102,5,0.1455
4104,0,0.3824
4105,0,0.2922
4106,24,0.1513
4107,24,0.1426
4108,21,0.1399
4109,21,0.1418
4110,21,0.1593
4111,21,0.1301
4112,7,0.1135
4114,21,0.1211
4115,21,0.1122
4116,21,0.1317
4117,21,0.1279
4120,28,0.1772
4121,1,0.1101
4122,8,0.1347
4123,28,0.1825
4124,28,0.1555
4125,5,0.2046
4126,19,0.1370
4127,7,0.1418
4128,16,0.1686
4129,8,0.5815
4130,8,0.8603
4131,8,0.9364
4132,8,0.5165
4133,16,0.3546
4134,16,0.3049
4135,16,0.4820
4136,16,0.2217
4137,16,0.3099
4138,16,0.4080
4139,9,0.1824
4140,16,0.2726
4141,19,0.2355
4142,17,0.2166
4143,8,0.7186
4144,8,0.7917
4145,16,0.2625
4146,23,0.2147
4147,19,0.1832
4148,8,0.5157
4149,8,0.6914
4150,16,0.3563
4151,8,0.2775
4152,19,0.2210
4153,24,0.2065
4154,19,0.3310
4155,19,0.3246
4156,19,0.1835
4157,16,0.1490
4158,19,0.2074
4159,19,0.3384
4160,19,0.2027
4161,19,0.2300
4162,16,0.3385
4163,19,0.2026
4164,19,0.2287
4165,19,0.3250
4166,19,0.4972
4167,16,0.3073
4168,16,0.3421
4169,19,0.1912
4170,19,0.2784
4171,19,0.3470
4172,21,0.2506
4173,19,0.2908
4174,19,0.3242
4175,15,0.3702
4176,19,0.1992
4177,19,0.3853
4178,15,0.2541
4179,19,0.2892
4180,19,0.2300
4181,19,0.4423
4182,19,0.1911
4183,7,0.2064
4184,7,0.1670
4185,8,0.1338
4186,21,0.2300
4187,7,0.1956
4188,21,0.1781
4189,21,0.1308
4190,21,0.1773
4191,21,0.2376
4192,21,0.2585
4193,8,0.1862
4194,21,0.1566
4195,7,0.2067
4196,19,0.2060
4197,19,0.1767
4198,21,0.2533
4199,21,0.2301
4200,7,0.1990
4201,21,0.2780
4202,21,0.3560
4203,21,0.3478
4204,21,0.3127
4205,21,0.2182
4206,7,0.2451
4207,7,0.2551
4208,21,0.2514
4209,21,0.2104
4210,0,0.2140
4211,22,0.1359
4212,21,0.1409
4213,19,0.1714
4214,21,0.1221
4215,24,0.1946
4216,19,0.1078
4217,19,0.1288
4218,7,0.1776
4219,21,0.1797
4220,7,0.1634
4221,7,0.1790
4222,7,0.1268
4223,24,0.3113
4225,9,0.2337
4226,1,0.1492
4227,19,0.1779
4228,24,0.1948
4229,21,0.1170
4230,19,0.2228
4231,19,0.2318
4232,24,0.1439
4233,21,0.2233
4234,7,0.2388
4235,7,0.1372
4236,1,0.1878
4237,11,0.2730
4238,21,0.2062
4239,0,0.1084
4240,7,0.1346
4241,24,0.2463
4243,19,0.1122
4244,19,0.1075
4246,19,0.1080
4248,7,0.1471
4249,19,0.1189
4252,2,0.1087
4253,6,0.1404
4254,7,0.1320
4255,1,0.1110
4257,28,0.1797
4259,7,0.1061
4262,5,0.1188
4265,16,0.3332
4266,8,0.3399
4267,19,0.1444
4268,8,0.5797
4269,8,0.2308
4270,1,0.1450
4271,15,0.1461
4272,14,0.1530
4273,25,0.1365
4275,7,0.1281
4276,24,0.2975
4277,0,0.1109
4279,5,0.1264
4280,7,0.1258
4281,7,0.1429
4282,21,0.1194
4283,7,0.1119
4286,24,0.1092
4287,21,0.1487
4290,21,0.1945
4291,7,0.1696
4292,7,0.2185
4293,1,0.1846
4294,1,0.1137
4296,30,0.1681
4297,21,0.1308
4298,7,0.1548
4299,5,0.1870
4300,7,0.1051
4301,7,0.1122
4302,0,0.3034
4303,0,0.3488
4305,0,0.1366
4306,11,0.1965
4307,11,0.1370
4308,7,0.1565
4309,19,0.1070
4310,19,0.1849
4311,7,0.1666
4312,21,0.1627
4313,21,0.2299
4314,7,0.1332
4315,21,0.1154
4316,24,0.1307
4319,8,0.3165
4320,24,0.1728
4321,7,0.3123
4322,15,0.2048
4323,12,0.1949
4324,19,0.1562
4325,16,0.2166
4326,16,0.2140
4328,7,0.1604
4330,8,0.1299
4331,7,0.1703
4333,25,0.1121
4334,24,0.1041
4335,30,0.1127
4336,24,0.1566
4337,19,0.1838
4338,7,0.1524
4339,24,0.1575
4340,8,0.4234
4341,8,0.2587
4342,7,0.1588
4344,8,0.3439
4345,8,0.2682
4346,21,0.1556
4349,16,0.2564
4350,8,0.3997
4351,7,0.1648
4352,7,0.1512
4353,9,0.1461
4354,21,0.2457
4355,21,0.2059
4356,11,0.1541
4357,16,0.2494
4358,8,0.3626
4359,7,0.1186
4360,5,0.1026
4363,7,0.2063
4364,7,0.2016
4365,7,0.1646
4366,7,0.1126
4367,24,0.1989
4368,21,0.1856
4369,21,0.1440
4370,21,0.1664
4371,7,0.1268
4372,7,0.1219
4373,21,0.1162
4376,7,0.1100
4377,9,0.1223
4378,5,0.1430
4379,5,0.2624
4380,5,0.1332
4384,19,0.1059
4385,21,0.1417
4386,21,0.1242
4387,19,0.1406
4388,21,0.2775
4389,21,0.2464
4390,19,0.1877
4391,24,0.1188
4392,24,0.1436
4395,19,0.1403
4396,24,0.1461
4397,7,0.1669
4398,7,0.1931
4399,24,0.2460
4400,11,0.1319
4401,8,0.1331
4403,1,0.1598
4404,0,0.1720
4405,0,0.1189
4406,21,0.1211
4407,1,0.1493
4408,0,0.1676
4410,7,0.1369
4412,2,0.1077
4413,19,0.1583
4415,0,0.1076
4416,5,0.2160
4417,7,0.2303
4418,15,0.1085
4419,15,0.1346
4420,15,0.1178
4421,24,0.1717
4423,8,0.2661
4424,8,0.2011
4425,24,0.1109
4426,30,0.2075
4427,0,0.1993
4428,4,0.2722
4429,23,0.1210
4430,19,0.1379
4432,16,0.1458
4433,6,0.1084
4436,19,0.2170
4438,4,0.5994
4439,28,0.3804
4440,24,0.3904
4441,1,0.4920
4442,11,0.1865
4443,7,0.1478
4444,19,0.2031
4445,8,0.1530
4446,19,0.2143
4447,19,0.1668
4448,21,0.1409
4449,21,0.1049
4450,6,0.1301
4452,5,0.1060
4453,9,0.1043
4454,8,0.1672
4455,24,0.1904
4456,0,0.1456
4457,7,0.1498
4458,24,0.1092
4459,6,0.1227
4460,5,0.1466
4461,5,0.2360
4462,19,0.1874
4463,9,0.1694
4464,9,0.1474
4465,21,0.1326
4466,5,0.1568
4467,24,0.2024
4468,7,0.1738
4469,19,0.1429
4470,7,0.2103
4471,23,0.1464
4472,8,0.3040
4473,19,0.1534
4474,21,0.2287
4475,7,0.1891
4476,23,0.1327
4477,9,0.1646
4478,9,0.2485
4479,1,0.1591
4480,1,0.2272
4481,9,0.1872
4482,9,0.1810
4483,9,0.1593
4484,8,0.3875
4485,8,0.5096
4486,9,0.2974
4487,23,0.1566
4488,8,0.3156
4490,21,0.2154
4491,21,0.1258
4493,24,0.1160
4494,24,0.1832
4495,7,0.1228
4496,5,0.1634
4497,24,0.2019
4498,24,0.2066
4499,7,0.1298
4500,7,0.1697
4501,7,0.1621
4502,7,0.1350
4503,9,0.3279
4504,8,0.7182
4505,16,0.2437
4506,11,0.1404
4507,19,0.1104
4508,19,0.2079
4509,16,0.1405
4510,9,0.1617
4511,19,0.1420
4512,8,0.2209
4513,8,0.5695
4514,7,0.1107
4515,7,0.2086
4516,19,0.1205
4517,8,0.2037
4518,21,0.1403
4519,8,0.1804
4520,19,0.1847
4521,24,0.2556
4522,19,0.2335
4523,8,0.2547
4524,10,0.1379
4525,8,0.3074
4526,21,0.1334
4527,0,0.2362
4528,7,0.2170
4529,23,0.1668
4530,19,0.1435
4531,9,0.1110
4532,5,0.2725
4533,8,0.2929
4534,8,0.2099
4535,19,0.2118
4536,23,0.1856
4537,19,0.1914
4538,7,0.1693
4539,5,0.1460
4540,7,0.2302
4541,7,0.1912
4542,24,0.1260
4543,7,0.1440
4544,7,0.1926
4545,24,0.1379
4548,21,0.1346
4549,11,0.1075
4550,24,0.1196
4551,30,0.1042
4552,14,0.1659
4553,16,0.1967
4554,19,0.1503
4555,19,0.2709
4556,19,0.1579
4557,6,0.1118
4558,23,0.1462
4559,19,0.2123
4560,24,0.2271
4562,7,0.1850
4563,19,0.1914
4564,8,0.2414
4565,8,0.3012
4566,8,0.1920
4567,19,0.1309
4568,30,0.1405
4569,7,0.2287
4570,11,0.1561
4571,24,0.1531
4572,24,0.1663
4573,19,0.1488
4574,20,0.1423
4575,23,0.1526
4576,5,0.1589
4577,5,0.2597
4578,8,0.3077
4579,8,0.4992
4580,8,0.2863
4581,19,0.1996
4582,19,0.2103
4583,19,0.1562
4584,19,0.1339
4585,19,0.2046
4586,8,0.4842
4587,8,0.4792
4588,8,0.3204
4589,8,0.2309
4590,8,0.3432
4591,8,0.4073
4592,8,0.2562
4593,8,0.3986
4594,8,0.3718
4595,8,0.3817
4596,8,0.7297
4597,8,0.2574
4598,8,0.1433
4599,8,0.2294
4600,8,0.6520
4601,8,0.5073
4602,8,0.2346
4603,8,0.3006
4604,8,0.1560
4605,9,0.2292
4606,9,0.2406
4607,9,0.3491
4608,9,0.1412
4609,7,0.2090
4610,8,0.2078
4611,1,0.1192
4612,21,0.1570
4613,21,0.1527
4614,8,0.1382
4615,7,0.1360
4616,8,0.2704
4617,8,0.4701
4618,11,0.1667
4619,7,0.1397
4620,19,0.1539
4621,8,0.5783
4622,8,0.6885
4623,7,0.1440
4624,21,0.1608
4625,24,0.2058
4626,8,0.3664
4627,16,0.1308
4628,1,0.1393
4629,8,0.1432
4630,8,0.7557
4631,8,0.3917
4633,8,0.1076
4634,23,0.1643
4635,19,0.1045
4637,21,0.1190
4638,8,0.1429
4639,8,0.2014
4640,9,0.2090
4641,9,0.3225
4642,0,0.2633
4643,0,0.1939
4644,19,0.1515
4645,8,0.1998
4646,8,0.3072
4647,19,0.1116
4648,5,0.2011
4649,8,0.5285
4650,8,0.3834
4651,11,0.1249
4652,8,0.3643
4653,16,0.1859
4654,7,0.1360
4655,8,0.2145
4656,8,0.2016
4657,7,0.1736
4658,19,0.1157
4659,1,0.3044
4663,4,0.1071
4664,4,0.1770
4665,1,0.2271
4666,7,0.2065
4668,4,0.2585
4669,11,0.1475
4671,0,0.1529
4672,19,0.2154
4673,8,0.1540
4674,16,0.3949
4675,8,0.4541
4676,9,0.2432
4677,9,0.2211
4678,9,0.2509
4679,19,0.2099
4680,19,0.2767
4681,19,0.1612
4682,6,0.1128
4683,7,0.1870
4684,1,0.1822
4685,11,0.1814
4686,19,0.1340
4687,23,0.1271
4688,19,0.1269
4689,5,0.1210
4690,8,0.1382
4691,5,0.1583
4692,7,0.1243
4693,19,0.1270
4694,8,0.1341
4695,21,0.1544
4696,21,0.1047
4697,5,0.1555
4698,5,0.1502
4699,19,0.2639
4700,19,0.1678
4701,5,0.2642
4702,7,0.1711
4703,5,0.1319
4704,8,0.1268
4705,9,0.2751
4706,7,0.1733
4707,21,0.2031
4708,7,0.2432
4709,19,0.1475
4710,7,0.2114
4711,21,0.1889
4712,19,0.1274
4713,19,0.2903
4714,8,0.1892
4715,9,0.1699
4716,5,0.2015
4717,5,0.1919
4718,5,0.3244
4719,5,0.2236
4720,23,0.1400
4721,9,0.1532
4722,19,0.2057
4723,19,0.2050
4724,9,0.1466
4725,9,0.2363
4726,9,0.1519
4727,23,0.1617
4728,9,0.2127
4729,5,0.3117
4730,19,0.1609
4731,9,0.2125
4732,19,0.1704
4733,19,0.1727
4734,5,0.2015
4735,9,0.2118
4736,9,0.2809
4737,1,0.5936
4738,4,0.3644
4739,19,0.1435
4740,23,0.1628
4741,31,0.1188
4742,12,0.1104
4743,19,0.1556
4744,23,0.1453
4745,19,0.1564
4746,19,0.2009
4747,9,0.3581
4748,9,0.2107
4749,9,0.3410
4750,9,0.1872
4751,9,0.2261
4752,19,0.1566
4753,19,0.1552
4754,5,0.2003
4755,9,0.3127
4756,9,0.2735
4757,19,0.1828
4758,23,0.1526
4759,5,0.1517
4760,5,0.1935
4761,19,0.1761
4762,19,0.2184
4763,23,0.1506
4764,5,0.2075
4765,5,0.2246
4766,5,0.2372
4767,9,0.1577
4768,9,0.3888
4769,9,0.2007
4770,23,0.1611
4771,23,0.1450
4772,9,0.2801
4773,5,0.1648
4774,9,0.3082
4775,9,0.2276
4776,9,0.1166
4777,5,0.1188
4778,23,0.1220
4779,9,0.2959
4780,9,0.3145
4781,5,0.2837
4782,19,0.1351
4783,19,0.1840
4784,19,0.1822
4785,5,0.1393
4786,23,0.1591
4787,9,0.1831
4788,5,0.1951
4789,9,0.1983
4790,8,0.1302
4791,9,0.2289
4792,5,0.2701
4793,9,0.2363
4794,9,0.3662
4795,9,0.1846
4796,5,0.2588
4797,19,0.2273
4798,19,0.2398
4799,19,0.1314
4800,9,0.1720
4801,9,0.2145
4802,16,0.1556
4803,23,0.1396
4804,9,0.1669
4805,9,0.2458
4806,5,0.1976
4807,5,0.1137
4808,5,0.3691
4810,9,0.2504
4811,5,0.2217
4812,19,0.1559
4813,6,0.1432
4814,19,0.1720
4815,9,0.1326
4816,9,0.4100
4817,9,0.2880
4818,9,0.2362
4819,5,0.2062
4820,28,0.1063
4821,19,0.1431
4822,9,0.2021
4823,9,0.3259
4824,19,0.2001
4825,19,0.2070
4826,9,0.1983
4827,9,0.2682
4828,5,0.2760
4829,9,0.2538
4831,28,0.1865
4832,9,0.1832
4833,23,0.1170
4834,9,0.1595
4835,19,0.2030
4836,16,0.2102
4837,19,0.1150
4838,23,0.1885
4839,8,0.3169
4840,16,0.4126
4841,19,0.1836
4842,19,0.1817
4843,9,0.3775
4844,16,0.1391
4845,19,0.1384
4846,5,0.1364
4847,1,0.1856
4848,12,0.1948
4849,5,0.3126
4850,9,0.2213
4851,9,0.1496
4852,19,0.1899
4853,4,0.1154
4854,5,0.2431
4855,9,0.3056
4856,16,0.1546
4857,1,0.1861
4858,9,0.2339
4859,9,0.2847
4860,23,0.1806
4861,19,0.1512
4862,9,0.3275
4863,5,0.2513
4864,9,0.1460
4865,19,0.1805
4866,9,0.2550
4867,9,0.3464
4868,5,0.3306
4869,23,0.1660
4870,23,0.1585
4871,23,0.1799
4872,19,0.2165
4873,5,0.1891
4874,5,0.3034
4875,5,0.1683
4876,19,0.1592
4877,9,0.3016
4878,5,0.1808
4879,4,0.1568
4880,4,0.9107
4882,5,0.2025
4883,5,0.1867
4884,19,0.1826
4885,16,0.1643
4886,8,0.2212
4887,9,0.2377
4888,5,0.2508
4889,9,0.2225
4890,9,0.2033
4891,19,0.2013
4892,5,0.2094
4893,9,0.2191
4894,23,0.1636
4895,19,0.1884
4896,9,0.2259
4897,5,0.1513
4898,23,0.1762
4899,19,0.2122
4900,9,0.1208
4901,9,0.2593
4902,9,0.2618
4903,23,0.1711
4904,5,0.2196
4905,19,0.1698
4906,9,0.1482
4907,9,0.2138
4908,9,0.1871
4909,19,0.1189
4910,9,0.3064
4911,23,0.1527
4912,19,0.1550
4913,9,0.2883
4914,5,0.1375
4916,28,0.1608
4917,19,0.1298
4918,12,0.1330
4920,19,0.1832
4921,12,0.1374
4922,12,0.1381
4923,12,0.1820
4924,13,0.1078
4926,31,0.1521
4927,16,0.1096
4928,22,0.1238
4929,19,0.1741
4930,19,0.1777
4931,19,0.2855
4932,12,0.1259
4933,1,0.1607
4934,23,0.1543
4935,9,0.1650
4936,5,0.2272
4937,5,0.2277
4938,9,0.1337
4939,23,0.1273
4940,9,0.2398
4941,9,0.1812
4942,19,0.3289
4943,16,0.1622
4944,4,0.1849
4946,19,0.1570
4947,23,0.1172
4948,4,0.1086
4949,23,0.1153
4950,19,0.1789
4951,19,0.1711
4952,9,0.2308
4953,23,0.1420
4954,19,0.1891
4957,23,0.1556
4958,5,0.2407
4959,9,0.3086
4960,8,0.7190
4961,8,0.1868
4962,9,0.3084
4963,9,0.2035
4964,9,0.2151
4965,9,0.2001
4966,9,0.3562
4967,9,0.3278
4968,8,0.3216
4969,16,0.1773
4970,16,0.1794
4971,19,0.1976
4972,5,0.2757
4973,19,0.2041
4974,19,0.2113
4975,5,0.2005
4976,19,0.1565
4977,19,0.1028
4978,19,0.1746
4979,9,0.1343
4980,19,0.1780
4981,13,0.1112
4985,8,0.2700
4986,8,0.6159
4987,11,0.1173
4988,21,0.1282
4989,24,0.1467
4990,8,0.2281
4991,4,0.1447
4994,21,0.1083
4995,0,0.8036
4996,0,0.6120
4997,16,0.3047
4998,16,0.3422
4999,16,0.4707
5000,8,0.2292
5001,8,0.4116
5002,19,0.1459
5003,4,0.1538
5004,22,0.1944
5005,28,0.1582
5006,19,0.1484
5007,27,0.1338
5008,12,0.1359
5009,19,0.1244
5010,21,0.2080
5011,7,0.1816
5012,19,0.1533
5013,19,0.1510
5014,19,0.1436
5016,7,0.1131
5018,4,0.3698
5019,4,0.8272
5021,24,0.1771
5022,21,0.1270
5023,8,0.6208
5024,8,0.5182
5028,8,0.1971
5029,8,0.2210
5032,24,0.1106
5033,8,0.4272
5034,8,0.1937
5035,1,0.1194
5036,7,0.1435
5039,8,0.4712
5040,16,0.2936
5041,28,0.1235
5042,9,0.2072
5043,8,0.3069
5044,16,0.5585
5045,19,0.2335
5046,8,0.2059
5047,8,0.5697
5048,8,0.5280
5049,8,0.4544
5050,16,0.3239
5051,19,0.1242
5053,20,0.1309
5056,24,0.2461
5057,24,0.1420
5058,24,0.1591
5059,24,0.1039
5060,5,0.1538
5061,22,0.1539
5062,28,0.1078
5063,19,0.1270
5064,24,0.2623
5065,24,0.2613
5066,24,0.1465
5067,24,0.1579
5068,24,0.1863
5069,21,0.1292
5070,19,0.1560
5071,8,0.1934
5072,8,0.2080
5073,24,0.1726
5074,24,0.2543
5076,8,0.3040
5077,8,0.5409
5078,19,0.1376
5079,23,0.1480
5080,8,0.1227
5081,8,0.3319
5082,30,0.1628
5083,24,0.2471
5084,24,0.3470
5085,21,0.1474
5086,30,0.1251
5087,21,0.2277
5088,24,0.3089
5089,24,0.3953
5090,24,0.2872
5091,11,0.2127
5092,24,0.2768
5093,23,0.1326
5094,21,0.1069
5095,24,0.1542
5096,8,0.1351
5097,20,0.1679
5098,24,0.1779
5099,8,0.2121
5100,8,0.1858
5101,23,0.1105
5102,8,0.3632
5103,22,0.2256
5104,8,0.4585
5105,16,0.2248
5106,23,0.1603
5107,19,0.1790
5108,21,0.1910
5109,24,0.1882
5110,22,0.2121
5111,8,0.3822
5112,8,0.1574
5113,24,0.1149
5115,7,0.1425
5116,5,0.1457
5117,8,0.1051
5118,19,0.2080
5119,19,0.1678
5120,21,0.1494
5121,5,0.1328
5123,19,0.1794
5124,19,0.1691
5125,23,0.3031
5126,16,0.1926
5127,16,0.1427
5128,4,0.1084
5129,22,0.1158
5130,22,0.2960
5131,28,0.1451
5132,19,0.2220
5133,6,0.1381
5134,7,0.1256
5135,7,0.1250
5136,5,0.1333
5137,21,0.1429
5139,21,0.1280
5140,7,0.2151
5141,19,0.1104
5142,19,0.1813
5143,19,0.1363
5144,7,0.2222
5145,7,0.1116
5146,19,0.1392
5147,19,0.1056
5148,21,0.1883
5151,24,0.2459
5152,21,0.1713
5153,7,0.2263
5154,7,0.2002
5155,24,0.1632
5156,21,0.1678
5157,24,0.1564
5158,24,0.1971
5159,24,0.2119
5160,24,0.2128
5161,21,0.2057
5163,7,0.2027
5164,21,0.1819
5165,24,0.1768
5166,21,0.1816
5167,21,0.1738
5168,19,0.1318
5170,24,0.1149
5171,7,0.1528
5172,21,0.1134
5174,18,0.1322
5175,5,0.1268
5176,7,0.1424
5177,7,0.1928
5178,7,0.2722
5179,7,0.2027
5180,18,0.1290
5181,31,0.1435
5182,7,0.1894
5183,24,0.1330
5184,19,0.1718
5185,7,0.1623
5186,7,0.1296
5187,5,0.1252
5188,15,0.1118
5190,7,0.1542
5192,5,0.1746
5193,21,0.1823
5194,21,0.1856
5195,21,0.1849
5196,7,0.1691
5197,7,0.1916
5198,24,0.1723
5199,24,0.3210
5200,7,0.2161
5201,21,0.2746
5202,7,0.1793
5203,19,0.1615
5204,11,0.1594
5205,24,0.1886
5206,7,0.2168
5207,7,0.1644
5208,19,0.1404
5209,19,0.1501
5210,24,0.2125
5211,24,0.3355
5212,19,0.1326
5213,19,0.1106
5214,19,0.1501
5215,19,0.1455
5216,19,0.2071
5217,21,0.1925
5218,21,0.2328
5219,24,0.2899
5220,30,0.1804
5221,24,0.2434
5222,24,0.2782
5223,24,0.1973
5224,24,0.1603
5225,24,0.2284
5227,24,0.2347
5228,24,0.2416
5229,24,0.1716
5230,20,0.1681
5231,22,0.2049
5232,22,0.1399
5235,19,0.1748
5236,23,0.1348
5237,21,0.1789
5238,24,0.3175
5239,24,0.3222
5240,24,0.1734
5241,10,0.1406
5242,10,0.4235
5243,10,0.3610
5244,10,0.2887
5245,24,0.2309
5246,10,0.1431
5247,24,0.1138
5248,5,0.1119
5249,15,0.1036
5253,8,0.4572
5254,8,0.5550
5257,24,0.2277
5258,19,0.1929
5259,24,0.1628
5260,24,0.1353
5262,8,0.4603
5263,8,0.4312
5265,24,0.1027
5266,24,0.2788
5267,24,0.1820
5268,20,0.1079
5270,7,0.3161
5271,7,0.2932
5272,18,0.1387
5273,7,0.1467
5274,21,0.2148
5275,5,0.1598
5276,5,0.1345
5278,21,0.1587
5279,15,0.1211
5280,5,0.1617
5281,19,0.1309
5283,21,0.1863
5284,21,0.1369
5285,8,0.6189
5286,8,0.9218
5287,7,0.1291
5288,24,0.1043
5289,11,0.1375
5290,8,0.3060
5291,8,0.5983
5292,0,0.1243
5296,8,0.4077
5297,12,0.1925
5298,25,0.1161
5299,15,0.1040
5305,20,0.1250
5306,8,0.2403
5307,16,0.1200
5308,0,0.1257
5312,23,0.1485
5313,8,0.3512
5314,8,0.6492
5315,23,0.2402
5316,28,0.1726
5317,22,0.2025
5318,1,0.3054
5319,1,0.3466
5320,8,0.2062
5321,8,0.1634
5322,0,0.1093
5323,24,0.1599
5324,7,0.1307
5326,24,0.1078
5328,1,0.1350
5329,7,0.2019
5330,21,0.1509
5331,9,0.1494
5332,0,0.1474
5333,21,0.2259
5334,7,0.1431
5335,21,0.1041
5336,24,0.1037
5337,7,0.1196
5338,1,0.2578
5339,1,0.1395
5341,22,0.1509
5342,9,0.1385
5343,4,0.1885
5344,0,0.1259
5346,24,0.4141
5347,24,0.3116
5351,0,0.1650
5352,21,0.2093
5353,7,0.2286
5354,21,0.1539
5355,21,0.2649
5356,21,0.1271
5358,11,0.2552
5359,6,0.1029
5361,7,0.1168
5362,21,0.1396
5363,24,0.2562
5364,24,0.1093
5365,1,0.1350
5366,0,0.1119
5367,8,0.2783
5368,8,0.1545
5369,8,0.1280
5370,22,0.1585
5372,8,0.1270
5373,23,0.1313
5374,20,0.3324
5375,8,0.5656
5376,30,0.1038
5377,5,0.1886
5378,7,0.1376
5379,7,0.1293
5380,23,0.1691
5381,19,0.1121
5382,7,0.1280
5383,21,0.1468
5384,7,0.1663
5385,7,0.1639
5386,7,0.1320
5387,7,0.1146
5388,7,0.1406
5389,21,0.1334
5390,24,0.1920
5391,7,0.1457
5393,7,0.1078
5394,21,0.1661
5395,21,0.1054
5396,23,0.1294
5398,24,0.1427
5400,20,0.1679
5401,7,0.2480
5402,7,0.1837
5403,21,0.1781
5404,21,0.1406
5405,21,0.1267
5406,24,0.2459
5407,24,0.1463
5408,24,0.1042
5409,21,0.1103
5410,21,0.1802
5411,21,0.1364
5412,21,0.1995
5413,21,0.2677
5414,7,0.2275
5415,11,0.1197
5416,24,0.1331
5417,24,0.3160
5418,24,0.1660
5419,21,0.1422
5420,21,0.1581
5421,24,0.2210
5422,21,0.2101
5423,7,0.1681
5424,7,0.1388
5425,0,0.1957
5426,19,0.1166
5427,1,0.1519
5428,8,0.1586
5429,19,0.1291
5430,7,0.3275
5431,21,0.1201
5432,21,0.1697
5433,7,0.1939
5434,7,0.1868
5435,21,0.1607
5436,11,0.1331
5437,21,0.1652
5438,29,0.1395
5439,32,0.1165
5440,5,0.1441
5441,4,0.4420
5442,1,0.2859
5443,21,0.1807
5444,21,0.1752
5445,21,0.1386
5446,11,0.1511
5447,21,0.1980
5448,7,0.1515
5449,7,0.1734
5450,7,0.1346
5451,1,0.1729
5452,11,0.2039
5453,7,0.1548
5454,7,0.1369
5455,7,0.1475
5456,21,0.1824
5457,21,0.1763
5458,21,0.1345
5459,7,0.1585
5460,21,0.1767
5461,0,0.1934
5462,0,0.1541
5463,21,0.1784
5464,7,0.1277
5465,21,0.1465
5467,21,0.1775
5468,11,0.1781
5469,21,0.1462
5470,7,0.1456
5471,21,0.1358
5472,7,0.1607
5473,11,0.2409
5474,21,0.1140
5475,30,0.1591
5476,7,0.1234
5477,7,0.1804
5478,5,0.1205
5479,1,0.3025
5480,11,0.2981
5481,21,0.2310
5482,0,0.1717
5483,11,0.1629
5484,11,0.2796
5485,7,0.2030
5486,0,0.1693
5487,11,0.2126
5488,21,0.2109
5489,11,0.2502
5490,0,0.2516
5491,11,0.1517
5492,7,0.1754
5493,21,0.1605
5494,7,0.1795
5495,11,0.1948
5496,11,0.3319
5497,0,0.2347
5498,21,0.1938
5499,21,0.1619
5500,21,0.2136
5501,11,0.1901
5502,1,0.2687
5503,1,0.2449
5504,7,0.1612
5505,21,0.1394
5506,21,0.2002
5507,11,0.2012
5508,7,0.1693
5509,7,0.1534
5510,7,0.1148
5511,5,0.1166
5512,6,0.1263
5513,9,0.1671
5514,9,0.3781
5515,9,0.1357
5516,23,0.1480
5517,5,0.2838
5518,5,0.1293
5520,24,0.1093
5521,24,0.1115
5522,24,0.1091
5523,24,0.1922
5524,24,0.1721
5525,24,0.1909
5526,8,0.1679
5527,8,0.2901
5528,8,0.1436
5529,24,0.1758
5530,23,0.1075
5532,5,0.1105
5533,5,0.1227
5534,21,0.1273
5535,1,0.4084
5536,8,0.4721
5537,8,0.8249
5538,8,0.2555
5539,24,0.2274
5540,24,0.1438
5541,21,0.1446
5542,24,0.1601
5543,24,0.1437
5544,24,0.1750
5545,8,0.2166
5546,8,0.5821
5547,8,0.2133
5548,9,0.1284
5549,1,0.1930
5550,9,0.1396
5551,8,0.1753
5552,8,0.1026
5553,8,0.1136
5554,9,0.1783
5555,8,0.2919
5556,8,0.4606
5557,0,0.3472
5558,21,0.1456
5559,11,0.1810
5560,24,0.1877
5561,21,0.2364
5562,24,0.2936
5563,7,0.1705
5564,24,0.1460
5565,21,0.1483
5566,8,0.1803
5567,8,0.3636
5568,8,0.1270
5569,7,0.1254
5570,23,0.1137
5571,8,0.1196
5572,7,0.1653
5573,21,0.1124
5574,21,0.1150
5575,21,0.1189
5576,8,0.2648
5577,8,0.2902
5578,11,0.2033
5579,11,0.3222
5580,24,0.1907
5581,24,0.1574
5582,24,0.1148
5583,24,0.1767
5584,8,0.1372
5585,8,0.2732
5586,8,0.3537
5587,8,0.2503
5588,9,0.2297
5589,8,0.2755
5590,8,0.1567
5591,9,0.1387
5592,8,0.1362
5593,1,0.1958
5594,1,0.3196
5595,8,0.1972
5596,21,0.1545
5597,7,0.1139
5598,8,0.2030
5599,8,0.5555
5600,8,0.1657
5602,9,0.1405
5603,8,0.2230
5604,8,0.1521
5605,8,0.2664
5606,19,0.2183
5607,24,0.1476
5608,24,0.1615
5609,21,0.1684
5610,8,0.1610
5611,8,0.3147
5612,9,0.1325
5613,8,0.2371
5614,9,0.1967
5615,7,0.1535
5616,24,0.1909
5617,24,0.1314
5618,24,0.1288
5619,9,0.1376
5620,9,0.2301
5621,8,0.1355
5622,21,0.1769
5623,7,0.3025
5624,7,0.1223
5625,24,0.1741
5626,24,0.1682
5627,24,0.2510
5628,21,0.1510
5629,7,0.1186
5630,24,0.2114
5631,7,0.1249
5632,24,0.1511
5633,24,0.1359
5634,8,0.1309
5635,21,0.1347
5636,21,0.1300
5637,7,0.1058
5638,21,0.1436
5639,24,0.2020
5640,10,0.1628
5641,9,0.1605
5642,8,0.3651
5643,8,0.1376
5644,19,0.1918
5645,21,0.1616
5646,23,0.1273
5647,23,0.1522
5648,8,0.1513
5649,23,0.1273
5650,28,0.1044
5652,24,0.1509
5653,24,0.2980
5654,21,0.1816
5655,24,0.1917
5656,24,0.5153
5657,20,0.2945
5658,22,0.3093
5659,24,0.3439
5660,19,0.1586
5661,7,0.1400
5662,19,0.2175
5663,15,0.2459
5664,7,0.2016
5666,8,0.2875
5667,20,0.3555
5668,24,0.4259
5669,24,0.4351
5670,18,0.1398
5671,16,0.2654
5672,22,0.1777
5673,8,0.2184
5674,19,0.1486
5675,7,0.1102
5676,7,0.1271
5677,7,0.3653
5678,7,0.4257
5679,5,0.2415
5680,5,0.1962
5681,5,0.2844
5682,5,0.3242
5683,5,0.3123
5684,5,0.2488
5685,5,0.3883
5686,5,0.4596
5687,5,0.4679
5688,5,0.3118
5689,7,0.1893
5690,7,0.1293
5691,8,0.1671
5693,7,0.1789
5694,24,0.1663
5695,23,0.1527
5696,24,0.1393
5697,8,0.1568
5698,19,0.1191
5699,19,0.1182
5700,19,0.1082
5701,11,0.2480
5702,24,0.1737
5703,19,0.1646
5704,23,0.1873
5705,1,0.2165
5706,1,0.5982
5707,1,0.4014
5708,9,0.4247
5709,8,0.2242
5710,9,0.6478
5711,9,0.6525
5712,8,0.3631
5713,23,0.2055
5714,8,0.4338
5715,8,0.5526
5716,8,0.3974
5717,8,0.2769
5718,8,0.4396
5719,8,0.5892
5720,8,0.4185
5721,8,0.4852
5722,9,0.3196
5723,9,0.2540
5724,19,0.2077
5726,8,0.1555
5727,19,0.1736
5728,24,0.2288
5729,8,0.1981
5730,24,0.5080
5731,24,0.2757
5732,14,0.1144
5733,12,0.1143
5734,7,0.1180
5735,5,0.1038
5737,31,0.1404
5738,6,0.1086
5739,6,0.1449
5740,24,0.2521
5741,23,0.1528
5743,19,0.1680
5744,19,0.1912
5745,0,0.1703
5747,8,0.1957
5748,24,0.2862
5749,11,0.3849
5750,1,0.4852
5751,16,0.2793
5752,16,0.2216
5753,16,0.2318
5754,16,0.4344
5755,8,0.4132
5756,8,0.3692
5757,8,0.3286
5758,8,0.2109
5759,30,0.1336
5760,24,0.1713
5761,24,0.2708
5762,24,0.3830
5763,19,0.1972
5764,19,0.2156
5765,19,0.1296
5766,5,0.1224
5767,1,0.1378
5768,1,0.1637
5769,22,0.1743
5770,0,0.1247
5771,1,0.2895
5772,8,0.2218
5773,8,0.4583
5774,9,0.4479
5775,9,0.2355
5776,22,0.2251
5777,28,0.2965
5778,28,0.1203
5780,24,0.1341
5781,24,0.1435
5782,24,0.1316
5783,24,0.1368
5784,7,0.1100
5785,24,0.1033
5786,29,0.1147
5789,9,0.1492
5791,7,0.1214
5792,9,0.1317
5793,7,0.1218
5794,21,0.1187
5796,7,0.1133
5797,0,0.2308
5798,1,0.3993
5799,8,0.5294
5800,8,0.7061
5801,20,0.1506
5802,7,0.1148
5803,9,0.1303
5804,8,0.7467
5805,8,0.6234
5806,8,0.2447
5807,28,0.1194
5813,9,0.1237
5816,21,0.1249
5817,8,0.5029
5818,8,0.3227
5819,9,0.1498
5821,8,0.1493
5822,8,0.7975
5823,21,0.1580
5824,24,0.2508
5825,21,0.2150
5826,7,0.2000
5827,8,0.1117
5828,8,0.4189
5829,9,0.1161
5830,7,0.1212
5831,9,0.1183
5832,8,0.1791
5833,8,0.1443
5834,9,0.1185
5835,9,0.1867
5836,9,0.1187
5837,21,0.1284
5838,21,0.1092
5839,8,0.2274
5840,16,0.1303
5841,7,0.1537
5842,21,0.1288
5844,24,0.1108
5845,8,0.1131
5847,21,0.1244
5849,8,0.1188
5850,8,0.1235
5851,9,0.1417
5853,21,0.1193
5854,8,0.2030
5856,5,0.1735
5857,21,0.1153
5858,24,0.1422
5859,7,0.1543
5860,8,0.1254
5861,8,0.1197
5864,8,0.2538
5865,8,0.1125
5868,8,0.6212
5869,30,0.1567
5870,24,0.1968
5873,7,0.1689
5874,7,0.1177
5876,8,0.1635
5877,8,0.3341
5878,30,0.1248
5879,24,0.1792
5881,21,0.1104
5882,7,0.1328
5883,5,0.1102
5884,8,0.2888
5885,0,0.1670
5886,7,0.2106
5887,24,0.1423
5888,24,0.1602
5889,24,0.1263
5890,7,0.1569
5891,7,0.1476
5892,7,0.1199
5893,24,0.3046
5894,24,0.4080
5895,21,0.1399
5896,7,0.1187
5897,5,0.1344
5898,5,0.1088
5899,8,0.3258
5900,28,0.1598
5901,21,0.1473
5902,7,0.1399
5903,21,0.1473
5904,21,0.1402
5905,21,0.1115
5906,21,0.1326
5907,7,0.1376
5908,7,0.1067
5909,8,0.1379
5913,8,0.7641
5914,8,0.3595
5915,24,0.1401
5916,7,0.1431
5917,7,0.1791
5918,24,0.1825
5919,24,0.1829
5920,24,0.2322
5921,7,0.1607
5922,8,0.1840
5923,19,0.1211
5924,19,0.1438
5925,16,0.1048
5926,28,0.3338
5927,0,0.3437
5928,19,0.1269
5929,16,0.1675
5930,24,0.2227
5931,10,0.1672
5932,21,0.1505
5933,7,0.1979
5934,24,0.1387
5935,24,0.1647
5936,8,0.1704
5937,8,0.3996
5938,8,0.4340
5939,8,0.1440
5941,5,0.2766
5942,5,0.1684
5943,5,0.1388
5944,5,0.2012
5945,5,0.2135
5946,5,0.1890
5947,19,0.2035
5948,19,0.1411
5949,7,0.1846
5950,21,0.1464
5951,19,0.1082
5953,21,0.1215
5954,8,0.3579
5955,8,0.6102
5956,7,0.1377
5957,24,0.1657
5958,8,0.1870
5959,24,0.1649
5961,5,0.1066
5962,8,0.1930
5963,1,0.1769
5964,12,0.1190
5965,24,0.1248
5966,24,0.2545
5967,24,0.3925
5968,0,0.2896
5969,11,0.2017
5970,9,0.1040
5971,7,0.1119
5973,19,0.1181
5974,21,0.1179
5975,7,0.1433
5976,7,0.1435
5978,24,0.1125
5979,24,0.2535
5980,24,0.1872
5981,24,0.2155
5982,19,0.1370
5983,31,0.1815
5984,15,0.1863
5985,7,0.1341
5986,1,0.2723
5987,7,0.1765
5988,15,0.1872
5989,24,0.2229
5990,8,0.3398
5991,24,0.1354
5992,21,0.1108
5993,8,0.1264
5994,16,0.1899
5995,16,0.3196
5996,16,0.1299
5997,16,0.1560
5998,4,0.3538
5999,25,0.1774
6000,21,0.2251
6001,21,0.1978
6002,24,0.2374
6003,10,0.1116
6006,7,0.1549
6007,7,0.1497
6008,0,0.1377
6010,16,0.1751
6011,24,0.3056
6012,0,0.4123
6013,0,0.2876
6014,7,0.1509
6015,7,0.1450
6016,0,0.3285
6017,8,0.1821
6018,19,0.1828
6019,5,0.1213
6020,24,0.1278
6021,15,0.1491
6022,19,0.1418
6023,24,0.1463
6024,8,0.3519
6025,8,0.5516
6026,21,0.1716
6027,17,0.1597
6028,16,0.1316
6029,5,0.1345
6030,15,0.1520
6031,15,0.1572
6032,15,0.1974
6033,0,0.1983
6034,11,0.2682
6035,7,0.2138
6036,0,0.1297
6037,19,0.1923
6038,19,0.1082
6039,19,0.1409
6040,19,0.1227
6041,13,0.1437
6042,15,0.1265
6044,24,0.1126
6047,24,0.1446
6048,7,0.1329
6049,19,0.1461
6050,19,0.1290
6051,21,0.1624
6052,7,0.1515
6053,7,0.1612
6054,19,0.1656
6055,19,0.2261
6056,19,0.2457
6057,19,0.1771
6058,11,0.1291
6060,28,0.2743
6061,16,0.1145
6063,8,0.1735
6064,8,0.2220
6065,21,0.1033
6066,7,0.1659
6067,19,0.2352
6068,19,0.2100
6069,19,0.2024
6070,21,0.1873
6071,21,0.1277
6072,7,0.1568
6073,5,0.1448
6074,7,0.1083
6075,19,0.1741
6076,8,0.1796
6077,5,0.1177
6078,19,0.1926
6079,5,0.1800
6080,19,0.1315
6081,21,0.1122
6082,7,0.1639
6083,19,0.2811
6084,19,0.2209
6085,19,0.2649
6086,1,0.2329
6087,19,0.1705
6088,19,0.2149
6089,19,0.1754
6090,19,0.1781
6091,24,0.2340
6092,24,0.2220
6093,24,0.3720
6094,24,0.1273
6095,24,0.1165
6096,21,0.1030
6097,19,0.1654
6098,19,0.1271
6099,7,0.1516
6100,1,0.1305
6101,19,0.1522
6102,5,0.1612
6103,5,0.1628
6104,19,0.1266
6105,7,0.1756
6106,7,0.2308
6107,7,0.1983
6108,21,0.1677
6109,19,0.1251
6110,19,0.1162
6111,24,0.2444
6112,21,0.1297
6113,19,0.1396
6114,24,0.1026
6115,19,0.1163
6116,21,0.1565
6117,7,0.1379
6118,19,0.1322
6119,11,0.1566
6120,24,0.1879
6121,8,0.1668
6122,19,0.1240
6123,19,0.1849
6124,7,0.1785
6125,19,0.1184
6126,19,0.1350
6127,21,0.1047
6128,7,0.1309
6129,8,0.1596
6130,16,0.3031
6131,16,0.4937
6132,16,0.3832
6133,16,0.1797
6134,9,0.2507
6135,21,0.2642
6136,9,0.2378
6137,9,0.2775
6138,9,0.2950
6139,9,0.7421
6140,16,0.2811
6141,16,0.1874
6142,16,0.2103
6143,16,0.3004
6144,19,0.1062
6145,19,0.1733
6146,19,0.1590
6147,21,0.2163
6148,21,0.2907
6149,7,0.1864
6151,19,0.1233
6153,1,0.1328
6154,23,0.1089
6155,28,0.1337
6156,7,0.1458
6158,28,0.1120
6159,19,0.2113
6160,1,0.1790
6161,19,0.1117
6162,9,0.2974
6163,1,0.1565
6165,19,0.1445
6167,7,0.2165
6168,19,0.1108
6170,7,0.1045
6171,21,0.2063
6172,7,0.1716
6173,7,0.1329
6174,21,0.1410
6175,0,0.1127
6176,5,0.1203
6177,21,0.1482
6178,11,0.1593
6179,7,0.1485
6180,30,0.1371
6182,24,0.1124
6183,11,0.1876
6184,0,0.1558
6185,19,0.1851
6186,11,0.2296
6187,19,0.1260
6188,8,0.1170
6189,21,0.1827
6190,21,0.1490
6191,19,0.1495
6192,24,0.1231
6193,21,0.1332
6194,21,0.1974
6195,0,0.1257
6196,0,0.1353
6197,7,0.1954
6198,7,0.1717
6199,21,0.2315
6200,5,0.1316
6201,7,0.2074
6202,7,0.1917
6203,23,0.1374
6204,19,0.1034
6206,24,0.1414
6207,21,0.1497
6208,5,0.1503
6209,1,0.1503
6210,11,0.2028
6211,24,0.1879
6212,21,0.1197
6213,21,0.1790
6214,21,0.1597
6215,21,0.1292
6216,19,0.1728
6217,19,0.1444
6219,21,0.1644
6220,24,0.1975
6221,8,0.1715
6222,8,0.1411
6223,10,0.1632
6224,24,0.2143
6225,7,0.1444
6226,7,0.1388
6227,21,0.1132
6228,1,0.1315
6230,19,0.1608
6232,7,0.1528
6233,5,0.1997
6234,7,0.1444
6235,7,0.1775
6236,21,0.1661
6237,21,0.2190
6238,21,0.1827
6239,21,0.1672
6240,0,0.1611
6241,8,0.1903
6242,11,0.1507
6243,21,0.2057
6244,21,0.1507
6245,11,0.1582
6246,7,0.1784
6247,7,0.2486
6248,7,0.1257
6249,21,0.1717
6250,21,0.1875
6251,20,0.1508
6253,7,0.2040
6254,21,0.1340
6255,7,0.1390
6256,7,0.1759
6257,22,0.1385
6258,16,0.3355
6259,23,0.1327
6260,24,0.1532
6261,7,0.2952
6262,7,0.2823
6264,30,0.1680
6265,28,0.1864
6266,8,0.3019
6267,28,0.2560
6268,8,0.3167
6269,19,0.1576
6270,19,0.1491
6272,5,0.1095
6273,7,0.1202
6274,21,0.1336
6275,24,0.1327
6276,21,0.1945
6277,5,0.1850
6278,7,0.1604
6280,15,0.1092
6281,7,0.1565
6282,0,0.1576
6285,8,0.1433
6286,19,0.2241
6287,19,0.1939
6288,7,0.2042
6289,19,0.1361
6290,23,0.1300
6291,19,0.1685
6292,5,0.2391
6295,7,0.1870
6296,21,0.1525
6297,21,0.1310
6298,21,0.1772
6299,13,0.1134
6300,13,0.1071
6301,24,0.1378
6302,24,0.2007
6303,24,0.2718
6304,24,0.1500
6306,24,0.1727
6307,24,0.1186
6309,21,0.1428
6310,24,0.1878
6311,24,0.1607
6312,24,0.1543
6313,21,0.1882
6314,11,0.1418
6315,21,0.1183
6316,7,0.1785
6317,24,0.3083
6318,24,0.2890
6319,24,0.4474
6320,20,0.1482
6321,24,0.2138
6322,24,0.2436
6323,24,0.2768
6324,19,0.1321
6325,8,0.1786
6326,19,0.1832
6327,11,0.1310
6328,19,0.1278
6329,19,0.1124
6330,24,0.1801
6333,24,0.1565
6334,22,0.2159
6335,8,0.3995
6336,8,0.1504
6337,19,0.1670
6338,19,0.1470
6339,23,0.1319
6340,11,0.1696
6341,24,0.1962
6342,23,0.1062
6343,30,0.2099
6344,11,0.1854
6345,23,0.1476
6346,11,0.1879
6347,8,0.1868
6348,0,0.1475
6349,11,0.1678
6350,19,0.1360
6351,24,0.2234
6352,8,0.2175
6353,8,0.6301
6354,8,0.7578
6355,8,0.2786
6356,11,0.3179
6357,23,0.1246
6358,8,0.1389
6359,22,0.2891
6360,8,0.5508
6361,8,0.3757
6362,8,0.1699
6364,32,0.1738
6365,11,0.1252
6366,30,0.1622
6367,24,0.4084
6368,28,0.1299
6369,28,0.1338
6370,19,0.1354
6371,19,0.1510
6372,11,0.2046
6373,11,0.1326
6374,21,0.1107
6375,24,0.1250
6377,24,0.1083
6378,24,0.1574
6379,11,0.1148
6382,1,0.1306
6383,1,0.1106
6385,11,0.2483
6386,11,0.1611
6388,22,0.1386
6389,8,0.1215
6390,11,0.1372
6392,21,0.1869
6393,21,0.1113
6394,19,0.1442
6395,19,0.2008
6396,11,0.2077
6397,19,0.1658
6398,19,0.1360
6399,19,0.1414
6400,24,0.2689
6402,19,0.1665
6403,22,0.1411
6404,30,0.1421
6405,19,0.1445
6406,24,0.2194
6407,21,0.1886
6408,8,0.1536
6409,8,0.4710
6410,8,0.1626
6411,0,0.1389
6412,16,0.1638
6413,19,0.1795
6414,8,0.2009
6415,8,0.2178
6416,19,0.1586
6417,8,0.2832
6418,8,0.1300
6419,19,0.1702
6420,19,0.1687
6421,19,0.1367
6422,24,0.1313
6423,7,0.1610
6424,11,0.2029
6425,0,0.3190
6426,24,0.2018
6427,24,0.1957
6428,21,0.1835
6429,21,0.1054
6430,5,0.2282
6431,5,0.1236
6432,21,0.1236
6434,24,0.4131
6435,24,0.2226
6436,7,0.1235
6437,5,0.1060
6438,21,0.1088
6439,21,0.1244
6440,21,0.1240
6441,24,0.1296
6442,24,0.1030
6443,18,0.1055
6444,28,0.1447
6446,5,0.1231
6447,9,0.1137
6448,9,0.1324
6449,24,0.1353
6450,0,0.1810
6451,0,0.1812
6452,8,0.2847
6453,5,0.1768
6454,21,0.1220
6455,21,0.1290
6456,24,0.2674
6457,7,0.1886
6458,28,0.2484
6459,12,0.1724
6460,5,0.1465
6461,24,0.1262
6462,24,0.2104
6464,5,0.1071
6465,24,0.2138
6466,22,0.1768
6467,28,0.1477
6468,28,0.1520
6469,28,0.1491
6470,8,0.2098
6471,28,0.2490
6472,0,0.2192
6473,28,0.1603
6474,19,0.1216
6476,22,0.1307
6477,22,0.2060
6478,22,0.1914
6479,8,0.2741
6480,8,0.2680
6481,7,0.1122
6482,8,0.1940
6483,28,0.1388
6484,24,0.1591
6485,8,0.1786
6486,12,0.1084
6487,5,0.1545
6489,12,0.1045
6490,19,0.1107
6492,24,0.1856
6495,24,0.2448
6500,24,0.1148
6501,10,0.1648
6502,5,0.2004
6503,5,0.1662
6504,5,0.1316
6510,24,0.1144
6511,24,0.3909
6512,7,0.1624
6513,7,0.2482
6514,15,0.1955
6515,15,0.1596
6516,15,0.1264
6517,15,0.1337
6518,15,0.1464
6519,5,0.1227
6520,24,0.1428
6521,15,0.1678
6522,24,0.2358
6523,24,0.1079
6524,7,0.1270
6525,7,0.1545
6526,21,0.1255
6527,24,0.2855
6528,19,0.1353
6529,7,0.2066
6530,24,0.1730
6531,24,0.3228
6533,6,0.1146
6534,24,0.4716
6535,24,0.3279
6536,19,0.1250
6537,19,0.1398
6538,7,0.2623
6539,14,0.1633
6540,28,0.1343
6541,15,0.1655
6543,23,0.1569
6544,32,0.1167
6545,13,0.1051
6546,13,0.1066
6547,24,0.1412
6548,21,0.1140
6549,7,0.1313
6550,7,0.1449
6551,21,0.1321
6552,21,0.1764
6553,7,0.2444
6554,7,0.1770
6555,7,0.1180
6556,21,0.1280
6557,7,0.1337
6558,11,0.1604
6559,21,0.1436
6560,21,0.1243
6561,21,0.1226
6562,7,0.1546
6563,21,0.1899
6564,24,0.2109
6565,24,0.4081
6566,7,0.2046
6567,7,0.1772
6568,33,0.1952
6569,24,0.2009
6570,24,0.2528
6571,8,0.2010
6572,24,0.2901
6573,11,0.2469
6574,0,0.1232
6576,7,0.1077
6578,24,0.1680
6579,24,0.2405
6580,0,0.1040
6581,19,0.1368
6582,19,0.1816
6583,7,0.1198
6584,7,0.1520
6585,24,0.2271
6586,24,0.2158
6587,24,0.1538
6588,24,0.1501
6589,24,0.1214
6590,24,0.2454
6591,7,0.2352
6592,21,0.1767
6593,21,0.1556
6594,20,0.1208
6595,30,0.1412
6596,7,0.1459
6597,7,0.2182
6598,7,0.1830
6599,0,0.2590
6600,11,0.2303
6601,11,0.1598
6602,11,0.3748
6603,21,0.2514
6604,24,0.2584
6605,19,0.1593
6606,24,0.1629
6607,8,0.2160
6608,11,0.1615
6609,11,0.1454
6610,11,0.1871
6611,11,0.1680
6612,7,0.2287
6613,7,0.1899
6614,24,0.3022
6615,11,0.2088
6616,30,0.2717
6617,7,0.2037
6618,24,0.1459
6619,24,0.1440
6620,7,0.1582
6621,24,0.1274
6622,7,0.1260
6623,7,0.1540
6624,7,0.1272
6625,1,0.2162
6626,11,0.1919
6627,21,0.1784
6628,11,0.1865
6629,11,0.1971
6630,11,0.2017
6631,11,0.2249
6632,7,0.1438
6633,21,0.1481
6634,7,0.1476
6635,21,0.1112
6636,1,0.1518
6637,1,0.1049
6638,11,0.2053
6639,21,0.1457
6640,7,0.1095
6641,11,0.2052
6642,11,0.2864
6643,1,0.2102
6644,7,0.1828
6645,7,0.1540
6646,5,0.1256
6648,21,0.1055
6649,21,0.1351
6650,19,0.1468
6651,11,0.1623
6652,11,0.2154
6653,7,0.1326
6655,8,0.2006
6656,11,0.1305
6657,21,0.1565
6658,21,0.1582
6659,21,0.1475
6660,21,0.1830
6661,0,0.2178
6662,11,0.2948
6663,11,0.2862
6664,11,0.3529
6665,11,0.1595
6666,7,0.1583
6667,7,0.1772
6668,7,0.2017
6669,7,0.1359
6670,11,0.1572
6671,11,0.1513
6672,24,0.1398
6674,5,0.1415
6675,5,0.1503
6676,7,0.1094
6677,7,0.1793
6678,21,0.1040
6679,21,0.1617
6681,7,0.1227
6682,7,0.1201
6684,7,0.1384
6685,7,0.1556
6686,21,0.1516
6687,5,0.2068
6688,28,0.1224
6689,12,0.1160
6690,5,0.1122
6692,21,0.1330
6693,21,0.1207
6694,7,0.1578
6696,5,0.1669
6697,5,0.1406
6698,5,0.1052
6699,7,0.1187
6700,7,0.1375
6701,0,0.1639
6702,5,0.1147
6703,5,0.1534
6704,5,0.2305
6705,5,0.2449
6706,7,0.1451
6707,7,0.1086
6708,25,0.1260
6709,5,0.1412
6710,5,0.2049
6712,12,0.1108
6715,25,0.1221
6718,4,0.2223
6719,2,0.2138
6720,12,0.1948
6721,0,0.2269
6722,12,0.1453
6723,16,0.2447
6724,28,0.1197
6727,0,0.2277
6728,30,0.1467
6729,6,0.1518
6730,8,0.7481
6731,0,0.2783
6732,0,0.1314
6733,0,0.7209
6734,0,0.4985
6735,1,0.1160
6736,5,0.1353
6737,15,0.1279
6738,1,0.1395
6739,5,0.1137
6743,7,0.1392
6746,2,0.1156
6747,2,0.1409
6748,5,0.1088
6749,5,0.1197
6750,32,0.1564
6752,7,0.1153
6753,7,0.1570
6754,5,0.1108
6756,7,0.1295
6757,21,0.1597
6758,21,0.1394
6759,21,0.1581
6760,21,0.1171
6761,21,0.1356
6763,23,0.1162
6764,19,0.1081
6765,21,0.1430
6767,24,0.1156
6768,7,0.1280
6769,7,0.1567
6770,21,0.1975
6771,19,0.1415
6774,7,0.1300
6775,21,0.1494
6777,5,0.1216
6779,21,0.1190
6781,5,0.1215
6782,5,0.1198
6783,5,0.1510
6784,5,0.2305
6786,5,0.1822
6787,5,0.1247
6788,7,0.1159
6790,5,0.1106
6791,5,0.1837
6792,8,0.1725
6793,19,0.1298
6794,5,0.1347
6795,7,0.2290
6796,9,0.2365
6797,9,0.3739
6798,5,0.1939
6799,5,0.2405
6800,6,0.1085
6801,9,0.1179
6802,9,0.1475
6803,5,0.2134
6804,5,0.2515
6805,5,0.1588
6806,6,0.1038
6807,5,0.1565
6808,7,0.1394
6809,5,0.1551
6810,9,0.2416
6811,5,0.2187
6812,5,0.2632
6813,5,0.1675
6814,5,0.1261
6815,5,0.1250
6816,5,0.1320
6817,21,0.1151
6818,7,0.1349
6820,21,0.1382
6821,21,0.1395
6822,21,0.1316
6823,9,0.1838
6824,16,0.1560
6825,23,0.1818
6826,19,0.2694
6827,7,0.1841
6828,5,0.2042
6829,23,0.1230
6830,5,0.2867
6831,5,0.1994
6832,5,0.1608
6833,6,0.1057
6834,7,0.1923
6835,7,0.1770
6836,5,0.2251
6837,5,0.2076
6838,9,0.1096
6839,21,0.1229
6840,7,0.1460
6841,21,0.1534
6842,5,0.1802
6843,9,0.2386
6844,5,0.2317
6845,21,0.1550
6847,19,0.1322
6848,21,0.1183
6849,21,0.1611
6850,7,0.1651
6851,5,0.1326
6852,11,0.1225
6853,19,0.1900
6854,24,0.2957
6855,24,0.2975
6856,19,0.1269
6857,9,0.2061
6858,19,0.1302
6859,24,0.2932
6860,24,0.2684
6861,7,0.1811
6862,19,0.1679
6863,23,0.1341
6864,5,0.1871
6865,5,0.2389
6866,23,0.1357
6867,28,0.1058
6868,20,0.1461
6869,28,0.1456
6870,12,0.1092
6872,5,0.1181
6873,5,0.2120
6874,19,0.1288
6875,6,0.1109
6876,6,0.1073
6877,19,0.1390
6879,5,0.2126
6880,5,0.2193
6881,5,0.1154
6882,5,0.1496
6883,23,0.1555
6884,23,0.1804
6885,19,0.1187
6886,5,0.1296
6887,9,0.1067
6888,5,0.1526
6889,5,0.1598
6890,5,0.1711
6891,9,0.1448
6892,19,0.2412
6893,23,0.1987
6894,9,0.3572
6895,9,0.4969
6896,9,0.4299
6897,9,0.5498
6898,8,0.4709
6899,23,0.1430
6900,19,0.1749
6901,19,0.2844
6902,5,0.2624
6903,23,0.1834
6904,19,0.2335
6905,19,0.3078
6906,23,0.1548
6907,9,0.3675
6908,5,0.2261
6909,5,0.1905
6910,19,0.2571
6911,19,0.1779
6912,19,0.2582
6913,8,0.2589
6914,19,0.2568
6915,23,0.2241
6916,4,0.5158
6917,4,0.9659
6918,8,0.2953
6919,9,0.2497
6920,16,0.1414
6921,0,0.2031
6922,19,0.1735
6923,19,0.1581
6924,17,0.1190
6925,0,0.1138
6926,23,0.2035
6927,9,0.1771
6928,5,0.4474
6929,19,0.1225
6930,4,0.1266
6931,19,0.1818
6932,9,0.1940
6933,19,0.2051
6934,16,0.1215
6935,9,0.1496
6936,9,0.1690
6937,9,0.1689
6938,19,0.1409
6939,9,0.1398
6940,8,0.2193
6941,9,0.1687
6942,9,0.3158
6943,9,0.2829
6944,8,0.3698
6945,19,0.1643
6946,21,0.1876
6947,8,0.2896
6948,8,0.6196
6949,8,0.8392
6950,8,0.2881
6951,8,0.4240
6952,8,0.1811
6953,24,0.3141
6954,24,0.1376
6955,24,0.1497
6956,8,0.3143
6957,8,0.4664
6958,8,0.3824
6959,19,0.1376
6960,23,0.1176
6961,8,0.3633
6962,8,0.2630
6963,8,0.5842
6964,8,0.2717
6965,8,0.3112
6966,30,0.1505
6968,8,0.4237
6969,8,0.6510
6970,25,0.1782
6972,8,0.4483
6973,8,0.6558
6975,8,0.3389
6976,8,0.8186
6977,8,0.3988
6978,6,0.1422
6979,24,0.3233
6980,20,0.1758
6981,8,0.2184
6982,8,0.1521
6983,24,0.3231
6984,8,0.2486
6985,8,0.7970
6986,9,0.1962
6987,8,0.1870
6988,8,0.6886
6989,8,0.6925
6990,8,0.1622
6991,8,0.3496
6992,8,0.2581
6993,8,0.4028
6994,8,0.2170
6995,8,0.2882
6996,8,0.1279
6997,8,0.6394
6998,8,0.9213
6999,8,0.2133
7000,8,0.1720
7001,24,0.2599
7002,8,0.4069
7003,8,0.3838
7004,19,0.1249
7005,8,0.2912
7006,21,0.1880
7008,8,0.3510
7009,8,0.6616
7011,19,0.1138
7012,8,0.8903
7013,8,0.7262
7014,9,0.1981
7015,8,0.7251
7016,8,0.9024
7017,8,0.5083
7018,8,0.5463
7019,8,0.2180
7020,24,0.1702
7021,24,0.1780
7022,8,0.1604
7023,8,0.2270
7024,24,0.2582
7025,8,0.1183
7026,21,0.1563
7027,21,0.1906
7028,21,0.1286
7029,21,0.1147
7030,24,0.2175
7031,24,0.3340
7032,24,0.1056
7033,8,0.3895
7034,8,0.2733
7035,8,0.4666
7038,5,0.1839
7039,16,0.1392
7040,8,0.1527
7041,5,0.1473
7042,24,0.1097
7044,5,0.1121
7045,24,0.1776
7046,8,0.4132
7047,21,0.1324
7048,9,0.1410
7049,8,0.2484
7050,24,0.1551
7051,21,0.2134
7052,19,0.1097
7053,9,0.1260
7054,21,0.1130
7055,7,0.1103
7056,21,0.1149
7057,21,0.1479
7058,20,0.1530
7059,8,0.1199
7061,24,0.1328
7062,24,0.1180
7064,8,0.5440
7065,8,0.3447
7066,5,0.1735
7068,12,0.1995
7069,19,0.1892
7070,24,0.2031
7071,19,0.1933
7073,5,0.2093
7074,7,0.2116
7075,5,0.1158
7076,5,0.3411
7077,7,0.1078
7078,7,0.1768
7079,5,0.3023
7080,5,0.2561
7081,7,0.2085
7082,7,0.2099
7083,7,0.1552
7084,5,0.2035
7085,5,0.2677
7086,7,0.2198
7087,7,0.1625
7088,5,0.1756
7089,9,0.1900
7090,9,0.1231
7091,5,0.1843
7092,7,0.1307
7093,7,0.1581
7094,5,0.1276
7095,5,0.1161
7096,21,0.1057
7097,7,0.1552
7098,7,0.1746
7099,7,0.1968
7100,7,0.1682
7102,16,0.2405
7103,19,0.1106
7104,7,0.1892
7105,23,0.1219
7106,7,0.1485
7107,7,0.2952
7108,7,0.2752
7109,5,0.1149
7110,12,0.2532
7111,5,0.1775
7112,19,0.2082
7113,19,0.1473
7114,19,0.1194
7115,5,0.1498
7116,19,0.2171
7117,19,0.1591
7118,5,0.1700
7119,7,0.1855
7120,7,0.2859
7121,5,0.1043
7123,7,0.3375
7124,5,0.1718
7125,7,0.2067
7126,7,0.1178
7128,19,0.1687
7129,7,0.1474
7130,7,0.1729
7131,5,0.2119
7132,9,0.1540
7133,7,0.3305
7134,7,0.1870
7135,7,0.1785
7136,7,0.1644
7138,9,0.1775
7139,5,0.1255
7140,7,0.1176
7141,21,0.1560
7142,7,0.1317
7143,19,0.1844
7144,19,0.1946
7145,9,0.2342
7146,7,0.1512
7147,0,0.4104
7148,0,0.3320
7149,19,0.2011
7150,19,0.1945
7152,7,0.1890
7153,7,0.2038
7154,7,0.2244
7155,7,0.2480
7156,19,0.1312
7157,8,0.1219
7158,19,0.1722
7159,16,0.1747
7160,17,0.1947
7161,9,0.1657
7162,8,0.2029
7163,8,0.2347
7164,4,0.1314
7165,16,0.1202
7168,23,0.1245
7169,23,0.1950
7170,19,0.1670
7171,16,0.3151
7172,16,0.1803
7173,23,0.1130
7174,23,0.1458
7175,8,0.2628
7176,19,0.1811
7177,19,0.1281
7178,19,0.2599
7179,19,0.2321
7180,19,0.1227
7182,16,0.3554
7183,23,0.1611
7184,28,0.1225
7186,16,0.2146
7187,19,0.2968
7188,19,0.1682
7191,19,0.1960
7192,9,0.2124
7193,19,0.1233
7194,5,0.2175
7195,19,0.2928
7196,8,0.2049
7197,16,0.1395
7198,16,0.1611
7199,8,0.3414
7200,19,0.2475
7201,19,0.1653
7202,17,0.1726
7203,19,0.2221
7204,5,0.1333
7205,6,0.1052
7207,17,0.1554
7208,16,0.2935
7209,8,0.1992
7210,9,0.2528
7211,12,0.2557
7212,19,0.2390
7213,19,0.1593
7214,5,0.1815
7215,7,0.1634
7216,19,0.1686
7217,23,0.1596
7218,19,0.1135
7219,19,0.1476
7220,19,0.2091
7222,9,0.1705
7223,23,0.1524
7224,23,0.1061
7225,8,0.2125
7226,8,0.5032
7227,8,0.7745
7228,8,0.3289
7229,8,0.1799
7230,7,0.1028
7231,24,0.2170
7232,8,0.1349
7233,21,0.1459
7234,21,0.1148
7235,21,0.1042
7237,7,0.1807
7238,8,0.4524
7239,8,0.3736
7240,7,0.1560
7241,7,0.1055
7242,24,0.1620
7243,8,0.4740
7244,16,0.1439
7245,21,0.1852
7246,24,0.3304
7247,8,0.5660
7248,8,0.1453
7249,7,0.1262
7250,16,0.1340
7251,8,0.6465
7252,8,0.7039
7253,8,0.1666
7254,8,0.8659
7255,8,0.7150
7256,5,0.1354
7257,24,0.1793
7258,24,0.2332
7259,8,0.5113
7260,8,0.2079
7261,21,0.1205
7262,16,0.1681
7263,8,0.6691
7264,8,0.2730
7265,24,0.1323
7266,8,0.7170
7267,8,0.7777
7268,7,0.1308
7269,8,0.1516
7270,8,0.6710
7271,21,0.1919
7272,21,0.1526
7273,24,0.2245
7274,8,0.2012
7275,8,0.9438
7276,8,0.7835
7277,7,0.1424
7278,24,0.2479
7279,8,0.1969
7280,8,0.6863
7281,0,0.1735
7282,7,0.1141
7283,8,0.5508
7284,8,0.8066
7285,8,0.1540
7286,0,0.1220
7287,16,0.1543
7288,8,0.8001
7289,8,0.2376
7290,8,0.1159
7291,8,0.5237
7292,8,0.9410
7293,8,0.3017
7294,9,0.1344
7295,8,0.9026
7296,8,0.8639
7297,7,0.1109
7298,8,0.8514
7299,8,0.8625
7300,7,0.1123
7301,8,0.2372
7302,8,0.1501
7303,24,0.1229
7304,7,0.1366
7305,24,0.1581
7306,21,0.1581
7307,7,0.1102
7308,8,0.1476
7309,16,0.1143
7311,24,0.2334
7312,21,0.2405
7313,7,0.1497
7314,11,0.1343
7315,11,0.1231
7316,24,0.3047
7317,24,0.2212
7318,8,0.2996
7319,8,0.3105
7320,19,0.1134
7321,24,0.1157
7322,21,0.1285
7323,8,0.7343
7324,8,0.5930
7326,21,0.1063
7328,8,0.1174
7329,8,0.5598
7330,8,0.5324
7332,21,0.1144
7333,21,0.1252
7336,8,0.3531
7337,8,0.1164
7338,21,0.1315
7339,21,0.1123
7340,21,0.1098
7343,8,0.7961
7344,8,0.6638
7345,7,0.1592
7346,5,0.1287
7347,7,0.1139
7348,24,0.1311
7349,8,0.2548
7350,8,0.2101
7351,8,0.2277
7352,9,0.1773
7353,9,0.2003
7354,8,0.3153
7355,9,0.5505
7356,9,0.3352
7357,9,0.3231
7358,9,0.3670
7359,8,0.3785
7360,9,0.3316
7361,9,0.2171
7362,8,0.2615
7363,24,0.1327
7364,8,0.2545
7365,8,0.4748
7366,24,0.2842
7367,24,0.2337
7368,7,0.1174
7369,8,0.4210
7370,9,0.4901
7371,8,0.2577
7372,8,0.3114
7373,19,0.2023
7374,24,0.3889
7375,24,0.3259
7376,24,0.1938
7377,8,0.2403
7378,23,0.1231
7379,6,0.1479
7380,9,0.1477
7381,8,0.1674
7382,8,0.2134
7383,24,0.1201
7384,19,0.1245
7385,8,0.1506
7386,24,0.1699
7387,24,0.1858
7388,19,0.1027
7389,21,0.1628
7390,24,0.1231
7391,1,0.1050
7392,8,0.1956
7393,8,0.2260
7394,8,0.3331
7395,9,0.3793
7396,8,0.3651
7397,8,0.2744
7398,8,0.3052
7399,8,0.1604
7400,7,0.1545
7401,8,0.2298
7402,23,0.1231
7403,19,0.1597
7404,8,0.4355
7405,8,0.3823
7406,8,0.2559
7407,8,0.1213
7408,19,0.1483
7409,7,0.1658
7410,8,0.1157
7411,9,0.2042
7412,19,0.1154
7413,8,0.1159
7414,8,0.2012
7415,8,0.2572
7416,21,0.1488
7417,23,0.1069
7418,21,0.2371
7419,24,0.2198
7420,24,0.1185
7421,24,0.1251
7422,11,0.2000
7423,0,0.1761
7424,4,0.1381
7425,1,0.3536
7426,23,0.1573
7429,23,0.1089
7430,6,0.1256
7431,6,0.1037
7432,6,0.1257
7433,8,0.1146
7434,9,0.1227
7435,7,0.1574
7436,7,0.1379
7437,23,0.1172
7438,5,0.1452
7439,5,0.1971
7440,9,0.1771
7442,8,0.1421
7443,8,0.3389
7444,8,0.5156
7445,8,0.4802
7446,8,0.7200
7447,8,0.4189
7448,8,0.4589
7449,8,0.2974
7450,8,0.2673
7451,8,0.4132
7452,8,0.3950
7453,9,0.2259
7454,9,0.3440
7455,9,0.5400
7456,8,0.6665
7457,8,0.5802
7458,8,0.6108
7459,8,0.3336
7460,8,0.3657
7461,8,0.4616
7462,8,0.4920
7463,8,0.4805
7464,8,0.4526
7465,8,0.6835
7466,8,0.4482
7467,8,0.3169
7468,8,0.4124
7469,9,0.2150
7470,8,0.6968
7471,10,0.1495
7472,24,0.3545
7473,24,0.2722
7474,8,0.5429
7475,8,0.3893
7476,19,0.1561
7477,24,0.3577
7478,8,0.2640
7479,8,0.2684
7480,24,0.1222
7481,19,0.3011
7482,9,0.2670
7483,19,0.1305
7484,8,0.4392
7485,0,0.8712
7486,0,0.8798
7487,16,0.6513
7488,8,0.8591
7489,8,0.7937
7490,8,0.8601
7491,8,0.2580
7492,24,0.2712
7493,24,0.1741
7494,10,0.1953
7495,22,0.1113
7496,23,0.1967
7497,8,0.2865
7498,8,0.6814
7499,8,0.2589
7500,21,0.1242
7501,7,0.1096
7502,24,0.1792
7503,19,0.1819
7504,19,0.1299
7505,7,0.1147
7506,8,0.4014
7507,8,0.3643
7508,8,0.3914
7509,8,0.5950
7510,8,0.4560
7511,8,0.3879
7512,9,0.1520
7513,8,0.2566
7514,8,0.2473
7515,9,0.1982
7516,9,0.1639
7517,8,0.1888
7518,8,0.1679
7519,8,0.1243
7520,8,0.4898
7521,24,0.2788
7522,8,0.1389
7523,8,0.2707
7524,22,0.2364
7525,8,0.1680
7526,8,0.1586
7527,8,0.2267
7528,8,0.2877
7529,8,0.1794
7530,9,0.2190
7531,8,0.2974
7532,8,0.3065
7533,24,0.2194
7534,8,0.1797
7535,8,0.1309
7536,8,0.2138
7537,9,0.2355
7538,8,0.2375
7539,9,0.1307
7540,9,0.2592
7541,9,0.1944
7542,9,0.2071
7543,8,0.2497
7544,8,0.5028
7545,8,0.1822
7546,8,0.2394
7547,8,0.1474
7548,24,0.4097
7549,8,0.1290
7550,5,0.1271
7552,24,0.2386
7553,24,0.4501
7554,8,0.2433
7555,8,0.5210
7556,8,0.2805
7557,24,0.3081
7558,24,0.4030
7559,21,0.1517
7560,8,0.2359
7561,8,0.1949
7562,19,0.1273
7563,24,0.2338
7564,24,0.1784
7565,24,0.2641
7566,24,0.1322
7567,24,0.1953
7568,24,0.1297
7570,24,0.1232
7571,24,0.1476
7573,1,0.1750
7574,1,0.1720
7575,1,0.1038
7579,21,0.1421
7580,5,0.1304
7581,5,0.1031
7582,24,0.2119
7583,8,0.2584
7585,23,0.1330
7587,23,0.1323
7588,8,0.1877
7589,28,0.1208
7590,5,0.1120
7591,5,0.1311
7592,21,0.1088
7594,20,0.1652
7595,22,0.1590
7596,7,0.1211
7597,7,0.1386
7598,24,0.4268
7599,30,0.1301
7600,7,0.1047
7601,7,0.1167
7602,8,0.3270
7603,8,0.1160
7604,19,0.1101
7605,8,0.1642
7606,8,0.2201
7607,8,0.2909
7608,8,0.7225
7609,8,0.6916
7610,8,0.2864
7611,8,0.5693
7612,8,0.3865
7613,8,0.1883
7614,8,0.4474
7615,8,0.2951
7616,9,0.2726
7617,8,0.5838
7618,8,0.5177
7619,9,0.2127
7620,8,0.2131
7621,21,0.1909
7622,9,0.1887
7623,8,0.5648
7624,8,0.1818
7625,9,0.2065
7626,9,0.3994
7627,9,0.3570
7628,8,0.5405
7629,19,0.1480
7630,21,0.1326
7631,0,0.1679
7632,0,0.1314
7633,8,0.2052
7634,8,0.1812
7635,8,0.1848
7636,9,0.1668
7637,9,0.2881
7638,9,0.1506
7639,9,0.2249
7640,8,0.2742
7641,9,0.4660
7642,9,0.3698
7643,8,0.5232
7644,8,0.7508
7645,23,0.1804
7646,24,0.1709
7647,23,0.1156
7648,22,0.1139
7649,0,0.1081
7650,28,0.1577
7652,12,0.1325
7653,5,0.1540
7654,5,0.1218
7655,5,0.2446
7656,5,0.1202
7658,5,0.1295
7659,5,0.1365
7660,5,0.1342
7661,5,0.1326
7662,9,0.1750
7663,9,0.2933
7664,8,0.4750
7665,8,0.2967
7666,8,0.1602
7667,8,0.2241
7668,9,0.1187
7669,8,0.2471
7670,16,0.2466
7671,8,0.1387
7672,23,0.1180
7673,22,0.2387
7674,20,0.2603
7676,7,0.1040
7677,23,0.1308
7678,8,0.1312
7679,21,0.1040
7680,7,0.1445
7681,7,0.1209
7682,7,0.1113
7683,23,0.1174
7684,23,0.2103
7685,22,0.2083
7686,20,0.2926
7687,20,0.1461
7688,7,0.1474
7689,7,0.1127
7690,21,0.1259
7691,21,0.1103
7692,23,0.1363
7693,22,0.2340
7694,8,0.2673
7695,21,0.1553
7696,7,0.1098
7697,24,0.2534
7698,24,0.3540
7699,21,0.1536
7700,21,0.1778
7701,21,0.3418
7702,21,0.2036
7703,8,0.1421
7704,24,0.2111
7705,24,0.1539
7706,8,0.1424
7707,8,0.2056
7708,8,0.6764
7709,8,0.3659
7710,8,0.1546
7711,8,0.2461
7713,23,0.1065
7714,28,0.1952
7715,19,0.1083
7716,7,0.1259
7717,21,0.1197
7718,24,0.1253
7719,23,0.1941
7720,6,0.1372
7721,7,0.1393
7722,23,0.1256
7723,8,0.1594
7724,7,0.2006
7725,24,0.1784
7726,8,0.1926
7727,0,0.2198
7728,0,0.2550
7729,21,0.1770
7730,0,0.1883
7731,21,0.1745
7732,21,0.2343
7733,0,0.1728
7734,16,0.2019
7735,8,0.2342
7736,19,0.1423
7737,23,0.1259
7738,19,0.1533
7739,7,0.1300
7740,23,0.1156
7741,23,0.1025
7742,7,0.1358
7743,23,0.1589
7744,19,0.2311
7745,6,0.1075
7746,19,0.1096
7747,23,0.2785
7748,6,0.1748
7749,21,0.1125
7750,6,0.1242
7751,16,0.1240
7753,21,0.1323
7755,21,0.1514
7756,21,0.1482
7757,23,0.1253
7758,8,0.1031
7759,21,0.1518
7760,24,0.2375
7761,24,0.1524
7762,21,0.1380
7763,24,0.2233
7765,9,0.1201
7766,7,0.1611
7767,8,0.1060
7768,23,0.2565
7769,23,0.1783
7770,23,0.1945
7771,23,0.2098
7772,8,0.1926
7773,8,0.1725
7774,23,0.1610
7775,23,0.1836
7776,8,0.1627
7777,8,0.4384
7778,10,0.1246
7779,23,0.1791
7780,23,0.1092
7781,8,0.3219
7782,21,0.2692
7783,21,0.2452
7784,7,0.2246
7785,19,0.1493
7786,22,0.2717
7787,22,0.2923
7788,24,0.1788
7789,23,0.2368
7790,10,0.1714
7791,22,0.1835
7792,22,0.2069
7793,19,0.1475
7794,8,0.2819
7795,8,0.4410
7796,16,0.2886
7797,33,0.1305
7798,16,0.1670
7799,23,0.1945
7800,8,0.5636
7801,23,0.1740
7802,19,0.2151
7804,19,0.1252
7805,7,0.1512
7807,18,0.1234
7808,19,0.1453
7809,7,0.1382
7810,5,0.2503
7811,24,0.1575
7812,7,0.1800
7813,7,0.1526
7814,19,0.1505
7815,19,0.1763
7816,19,0.1332
7817,23,0.1025
7818,23,0.1746
7819,10,0.1760
7820,10,0.1481
7821,24,0.2164
7822,21,0.1575
7823,21,0.1823
7824,24,0.1661
7825,24,0.1750
7826,24,0.2072
7827,21,0.1267
7828,21,0.1418
7829,21,0.1405
7830,21,0.1390
7831,21,0.1573
7832,21,0.1930
7833,7,0.1129
7834,23,0.1172
7835,24,0.2399
7836,11,0.1475
7837,8,0.2475
7838,8,0.1855
7839,21,0.1245
7840,24,0.1900
7841,24,0.2362
7842,8,0.2138
7843,24,0.2505
7844,21,0.2694
7845,21,0.1706
7846,1,0.1967
7847,8,0.5101
7848,8,0.3040
7849,8,0.3645
7850,8,0.4489
7851,8,0.2039
7852,8,0.5112
7853,21,0.2048
7854,8,0.2880
7855,8,0.3443
7856,6,0.1235
7857,7,0.1188
7858,21,0.1158
7859,24,0.1854
7860,24,0.1551
7861,21,0.2421
7862,8,0.2548
7863,20,0.2135
7864,24,0.1073
7865,21,0.1137
7866,20,0.2124
7867,8,0.2177
7868,23,0.1631
7870,21,0.2643
7871,24,0.2212
7872,0,0.1802
7873,0,0.2082
7874,0,0.2413
7875,21,0.1548
7876,21,0.1990
7877,1,0.2427
7878,8,0.2645
7879,8,0.5201
7880,0,0.1465
7881,8,0.3260
7882,8,0.3664
7883,21,0.2204
7884,11,0.1567
7885,8,0.1853
7886,8,0.3702
7887,21,0.1092
7888,24,0.1912
7889,24,0.1342
7890,21,0.1242
7891,7,0.1527
7892,7,0.1518
7893,8,0.2641
7894,8,0.2053
7895,0,0.2878
7896,19,0.1843
7897,11,0.1368
7898,16,0.2135
7899,16,0.3836
7900,0,0.1039
7901,7,0.1493
7902,7,0.1222
7903,21,0.1189
7904,7,0.1108
7905,16,0.2885
7906,8,0.1348
7907,21,0.1433
7908,8,0.1371
7909,23,0.1362
7911,1,0.1593
7912,23,0.1197
7913,19,0.1186
7915,24,0.2274
7916,23,0.1133
7919,8,0.2610
7922,8,0.1965
7923,30,0.1119
7924,8,0.1032
7925,8,0.2772
7926,21,0.1353
7927,24,0.1718
7928,22,0.2494
7929,8,0.1909
7930,21,0.1222
7931,7,0.2120
7932,19,0.1224
7933,8,0.1872
7934,21,0.1179
7935,22,0.1437
7936,19,0.1585
7937,7,0.1579
7938,21,0.1267
7939,24,0.1423
7940,8,0.1857
7941,24,0.1481
7942,21,0.1568
7943,21,0.1110
7944,11,0.1467
7945,23,0.1656
7946,19,0.1295
7947,7,0.1156
7948,7,0.1109
7949,23,0.1264
7951,21,0.1174
7954,23,0.1169
7955,23,0.1910
7956,23,0.1864
7957,19,0.1313
7958,24,0.1699
7959,24,0.1577
7960,7,0.1789
7961,0,0.2239
7962,0,0.1772
7963,8,0.1170
7964,8,0.1356
7965,19,0.1947
7966,5,0.1354
7967,7,0.2038
7968,21,0.1805
7969,5,0.1429
7970,19,0.1326
7971,19,0.1115
7972,4,0.2170
7974,13,0.1085
7975,7,0.1200
7976,7,0.1431
7977,7,0.1224
7978,7,0.1753
7979,7,0.1660
7980,7,0.1555
7981,7,0.1891
7982,5,0.1426
7984,21,0.1216
7985,19,0.2515
7986,19,0.1892
7987,5,0.1776
7988,19,0.1677
7989,24,0.1192
7990,5,0.1428
7991,19,0.1640
7992,10,0.1628
7993,7,0.1583
7994,24,0.1635
7995,19,0.1676
7996,8,0.3008
7997,19,0.2696
7998,19,0.2028
7999,24,0.1796
8001,24,0.3519
8002,24,0.2283
8005,14,0.1045
8006,24,0.2052
8010,4,0.3082
8011,4,0.4810
8012,4,0.1637
8013,4,0.1778
8014,20,0.2545
8015,28,0.1744
8016,22,0.1991
8017,27,0.1729
8019,27,0.1464
8020,32,0.2292
8021,32,0.1530
8022,6,0.1159
8024,27,0.1956
8025,4,0.4196
8026,4,0.1603
8027,19,0.1282
8029,22,0.1099
8030,22,0.1250
8032,24,0.1364
8033,33,0.1032
8034,6,0.1034
8035,24,0.2129
8036,19,0.1097
8038,32,0.1354
8039,19,0.1963
8040,8,0.4907
8041,9,0.3780
8042,9,0.2945
8043,8,0.3850
8044,23,0.2116
8045,24,0.1824
8046,23,0.1808
8047,8,0.3065
8048,19,0.2533
8049,23,0.1436
8050,24,0.2100
8051,19,0.1421
8052,16,0.2598
8053,24,0.1892
8054,19,0.2906
8055,24,0.2386
8056,19,0.2455
8057,19,0.1949
8058,19,0.1962
8059,19,0.2124
8060,19,0.1905
8061,23,0.1799
8062,10,0.2156
8063,24,0.2716
8064,19,0.1955
8065,24,0.1680
8066,19,0.1818
8067,24,0.1182
8068,19,0.1957
8069,19,0.1461
8070,16,0.2925
8071,19,0.2029
8072,19,0.2050
8073,19,0.1493
8074,19,0.1985
8075,19,0.1601
8076,19,0.1580
8077,24,0.1444
8078,19,0.2101
8079,24,0.1670
8080,22,0.1729
8081,8,0.1791
8082,24,0.2082
8083,19,0.2953
8084,20,0.1205
8086,8,0.2400
8087,28,0.1324
8089,24,0.1217
8090,23,0.1027
8091,32,0.1113
8093,22,0.1564
8095,15,0.1386
8096,19,0.1658
8097,23,0.2130
8098,16,0.3306
8099,16,0.5699
8100,8,0.5915
8101,8,0.4754
8102,8,0.4305
8103,16,0.4302
8104,0,0.1669
8105,30,0.2781
8106,22,0.2145
8107,22,0.1704
8108,19,0.1050
8110,33,0.2254
8111,33,0.2076
8112,33,0.1465
8113,33,0.1919
8114,32,0.1293
8117,19,0.1295
8118,19,0.1722
8119,24,0.2007
8120,7,0.1617
8121,19,0.1311
8122,19,0.1638
8123,24,0.2231
8124,7,0.1662
8127,32,0.1398
8128,31,0.1081
8130,19,0.1680
8131,24,0.1789
8132,31,0.1474
8135,18,0.1114
8136,32,0.1372
8137,32,0.1044
8138,12,0.1285
8139,19,0.1363
8140,19,0.1754
8141,6,0.1331
8142,7,0.1829
8143,19,0.2316
8144,28,0.1238
8145,28,0.1732
8146,12,0.1615
8147,5,0.1709
8148,21,0.1265
8150,19,0.2255
8151,19,0.1535
8152,7,0.1829
8153,19,0.1703
8154,19,0.1856
8155,24,0.2167
8156,24,0.2017
8157,24,0.1158
8158,7,0.1223
8159,7,0.1218
8160,7,0.1488
8161,7,0.1510
8162,24,0.1055
8169,24,0.1144
8170,24,0.1341
8171,7,0.1336
8173,1,0.1061
8174,0,0.1417
8175,24,0.1059
8176,24,0.1039
8177,7,0.1126
8181,8,0.1605
8182,8,0.5961
8183,8,0.3354
8184,8,0.1986
8185,9,0.2462
8186,9,0.1909
8187,8,0.1565
8188,24,0.1541
8189,24,0.1293
8190,24,0.2755
8191,7,0.1539
8192,19,0.1418
8193,19,0.1765
8194,19,0.1833
8195,8,0.1644
8196,19,0.1613
8197,10,0.1427
8198,19,0.2078
8199,7,0.2169
8200,19,0.1696
8201,8,0.2593
8202,5,0.1720
8203,5,0.1840
8204,19,0.1559
8205,19,0.2405
8206,9,0.1806
8207,19,0.2271
8208,7,0.1540
8209,8,0.1985
8210,19,0.1926
8211,19,0.2076
8213,19,0.1638
8214,24,0.1152
8215,23,0.1867
8216,23,0.1301
8217,19,0.1715
8218,7,0.2120
8219,19,0.1802
8220,19,0.1556
8221,24,0.2177
8222,7,0.1935
8223,19,0.2008
8224,6,0.1386
8225,19,0.1914
8226,24,0.2518
8227,24,0.1192
8228,19,0.1582
8229,23,0.1552
8230,24,0.1631
8231,24,0.2142
8232,19,0.1605
8233,23,0.1146
8235,24,0.2448
8236,19,0.1515
8239,12,0.1756
8240,12,0.1161
8241,31,0.1124
8242,19,0.1560
8244,23,0.1761
8245,8,0.1687
8246,19,0.1396
8247,24,0.1783
8248,24,0.1925
8249,24,0.2875
8250,21,0.1670
8251,7,0.1289
8252,24,0.1995
8253,24,0.1637
8254,21,0.1494
8255,21,0.1465
8256,7,0.2292
8257,7,0.2287
8258,7,0.1454
8259,7,0.2302
8260,7,0.2270
8261,7,0.1457
8262,24,0.1537
8263,21,0.1349
8264,21,0.1312
8265,7,0.1443
8266,7,0.1700
8267,24,0.2053
8268,24,0.2659
8269,24,0.2581
8270,21,0.1213
8271,5,0.2211
8272,24,0.2436
8273,23,0.1261
8274,8,0.1533
8275,22,0.1187
8276,19,0.2172
8277,19,0.1337
8279,19,0.2103
8280,19,0.1581
8281,16,0.1101
8282,8,0.1822
8283,19,0.1138
8285,7,0.1402
8286,7,0.1568
8287,24,0.2628
8288,7,0.1809
8289,19,0.1352
8290,24,0.1912
8291,24,0.2459
8294,24,0.1078
8295,21,0.1103
8296,19,0.1404
8298,19,0.1682
8299,19,0.1507
8300,19,0.1053
8301,22,0.1174
8302,28,0.1212
8303,32,0.1234
8304,15,0.1150
8305,19,0.1389
8306,7,0.1764
8308,2,0.2233
8309,28,0.1404
8310,19,0.1152
8311,7,0.3070
8312,24,0.1570
8313,7,0.1558
8314,24,0.2314
8316,19,0.1634
8317,19,0.2083
8319,19,0.1064
8320,19,0.1613
8321,24,0.1786
8322,5,0.1761
8323,7,0.1587
8324,7,0.1391
8325,19,0.1883
8326,7,0.1556
8327,7,0.1395
8328,7,0.1745
8329,19,0.1605
8330,19,0.1883
8331,19,0.1694
8332,19,0.1578
8333,24,0.2698
8334,19,0.1354
8335,7,0.1302
8338,19,0.1064
8339,19,0.1257
8340,19,0.1298
8341,7,0.1716
8342,19,0.1096
8344,21,0.1434
8345,7,0.1359
8348,19,0.1263
8349,24,0.1711
8351,8,0.1138
8352,8,0.1881
8353,21,0.1468
8354,24,0.1728
8355,21,0.2280
8356,19,0.1315
8357,21,0.1690
8358,24,0.2156
8359,21,0.1460
8360,21,0.1958
8361,19,0.1222
8362,7,0.1251
8363,8,0.1252
8364,16,0.2137
8365,16,0.1775
8366,8,0.1549
8367,8,0.1674
8368,20,0.2320
8369,8,0.5573
8370,8,0.6116
8371,8,0.4860
8372,7,0.1487
8373,23,0.1815
8374,20,0.1772
8375,30,0.1695
8376,8,0.1377
8377,16,0.1493
8378,19,0.1208
8379,0,0.1208
8380,19,0.1319
8381,20,0.1849
8382,21,0.1546
8383,21,0.2108
8384,21,0.2561
8385,8,0.1787
8386,16,0.1034
8387,16,0.1740
8389,19,0.1117
8391,19,0.1206
8393,8,0.1368
8394,24,0.2071
8395,24,0.1841
8396,16,0.2061
8397,16,0.4644
8398,19,0.1388
8399,22,0.1780
8400,16,0.2363
8401,4,0.2904
8402,0,0.1683
8403,0,0.1889
8404,0,0.4399
8405,16,0.1315
8406,1,0.1327
8407,16,0.1711
8408,8,0.1521
8409,8,0.1922
8410,8,0.1529
8411,23,0.2747
8412,8,0.6046
8413,23,0.1265
8414,8,0.3777
8415,8,0.5276
8416,28,0.2286
8417,4,0.3008
8418,16,0.3262
8419,8,0.4846
8420,19,0.1526
8421,19,0.1527
8422,19,0.1641
8423,19,0.1797
8424,19,0.1352
8425,21,0.1772
8426,24,0.1733
8427,21,0.1679
8428,21,0.1452
8429,24,0.1688
8430,21,0.1916
8431,24,0.1657
8432,24,0.3329
8433,24,0.1733
8434,24,0.2604
8435,24,0.4096
8436,24,0.2078
8437,24,0.1696
8438,24,0.2348
8439,15,0.1445
8440,19,0.2186
8441,21,0.2021
8442,21,0.1628
8443,7,0.2280
8444,19,0.3055
8445,19,0.1836
8446,5,0.1542
8447,7,0.1959
8448,7,0.1743
8450,19,0.1378
8451,7,0.1489
8452,21,0.1726
8453,24,0.2101
8454,5,0.1194
8455,7,0.1730
8456,7,0.1531
8457,24,0.1903
8458,19,0.1509
8459,7,0.1275
8460,24,0.1137
8461,7,0.1521
8462,7,0.1429
8463,7,0.1380
8464,5,0.1429
8465,7,0.1440
8466,5,0.1277
8467,19,0.1548
8468,24,0.1938
8469,19,0.2009
8470,19,0.1573
8471,7,0.1772
8472,7,0.1921
8473,19,0.1330
8474,7,0.1500
8475,7,0.1452
8476,21,0.1266
8477,21,0.1735
8478,7,0.2073
8479,7,0.1973
8480,21,0.1781
8481,7,0.1947
8482,7,0.2514
8483,7,0.2063
8484,7,0.1618
8485,21,0.1753
8486,21,0.1491
8487,7,0.1714
8488,7,0.1516
8489,7,0.1883
8490,19,0.2180
8491,7,0.2292
8492,7,0.1746
8493,7,0.1661
8495,7,0.1457
8496,21,0.1233
8498,7,0.1182
8499,6,0.1096
8500,7,0.1551
8501,24,0.1602
8502,24,0.1744
8504,11,0.1099
8505,19,0.1731
8507,19,0.1999
8508,19,0.1580
8509,5,0.1384
8510,5,0.1243
8511,15,0.2047
8512,15,0.1154
8513,32,0.1125
8514,32,0.1063
8515,7,0.1279
8516,25,0.1252
8517,4,0.1245
8518,29,0.1103
8519,32,0.1288
8521,19,0.1872
8522,7,0.1872
8523,7,0.1380
8524,1,0.2465
8525,1,0.2734
8526,21,0.1671
8527,5,0.1749
8528,23,0.1711
8529,21,0.1042
8530,7,0.1031
8531,7,0.2270
8532,19,0.1486
8533,5,0.1647
8534,7,0.1288
8535,23,0.1029
8536,7,0.1719
8537,7,0.1818
8538,10,0.1549
8539,7,0.1372
8540,7,0.2111
8541,7,0.2702
8542,7,0.1740
8543,7,0.1786
8544,7,0.1827
8545,7,0.2284
8546,7,0.1763
8547,5,0.1500
8548,19,0.2377
8549,19,0.1494
8550,7,0.1732
8551,9,0.1644
8552,19,0.1802
8553,21,0.1401
8554,7,0.1677
8555,5,0.1831
8556,10,0.1483
8557,24,0.1669
8558,19,0.1910
8559,7,0.1786
8560,19,0.1560
8561,7,0.2342
8562,19,0.1363
8563,24,0.4148
8564,24,0.5482
8565,8,0.4973
8566,8,0.7137
8567,4,0.4913
8568,19,0.1781
8569,19,0.2235
8570,7,0.2563
8571,19,0.1996
8572,19,0.1287
8573,24,0.1654
8574,19,0.1892
8575,23,0.2086
8576,19,0.1025
8577,1,0.3951
8578,7,0.1913
8579,1,0.4049
8580,11,0.1965
8581,7,0.2172
8582,11,0.2609
8583,1,0.2128
8584,7,0.2274
8585,9,0.1343
8586,1,0.2315
8587,7,0.2462
8588,7,0.2362
8589,1,0.3222
8590,21,0.1731
8591,21,0.1639
8592,11,0.1816
8593,19,0.1178
8594,24,0.2601
8595,11,0.3488
8596,1,0.3045
8597,19,0.2192
8598,8,0.3493
8599,24,0.3316
8600,19,0.1868
8601,8,0.1385
8602,19,0.1902
8603,19,0.1694
8604,5,0.1804
8605,10,0.1347
8606,19,0.1509
8607,10,0.1545
8608,19,0.1690
8609,19,0.1249
8610,19,0.1392
8611,5,0.1709
8612,5,0.1585
8613,24,0.2646
8614,19,0.1513
8615,5,0.3056
8616,19,0.1870
8617,19,0.2627
8618,19,0.1974
8619,23,0.1522
8620,24,0.2187
8621,24,0.3015
8622,24,0.1918
8623,19,0.1846
8624,19,0.1674
8625,19,0.1661
8626,19,0.1329
8627,19,0.2186
8628,19,0.2155
8629,5,0.2660
8630,5,0.1544
8631,5,0.1843
8632,5,0.2174
8633,5,0.1768
8634,5,0.1909
8635,19,0.1889
8636,19,0.1299
8637,24,0.1464
8638,7,0.1914
8639,15,0.1414
8640,7,0.2104
8641,7,0.1649
8642,5,0.1355
8643,5,0.1872
8644,15,0.1345
8645,19,0.1424
8646,19,0.1744
8647,19,0.1429
8648,7,0.1933
8649,21,0.1440
8650,19,0.1403
8651,1,0.1852
8652,11,0.2714
8653,1,0.4336
8654,7,0.1158
8655,7,0.2153
8656,7,0.3091
8658,24,0.1319
8659,20,0.1708
8660,20,0.1923
8661,19,0.1948
8662,6,0.1862
8663,6,0.1136
8664,24,0.2045
8665,24,0.2786
8666,24,0.1999
8667,7,0.2360
8668,24,0.2421
8669,7,0.1624
8670,24,0.2487
8671,24,0.5425
8672,24,0.3091
8673,7,0.1797
8674,24,0.2620
8675,24,0.3131
8676,24,0.1717
8677,24,0.3352
8678,7,0.1913
8679,7,0.1512
8680,24,0.2374
8681,24,0.2365
8682,10,0.1556
8683,19,0.1415
8684,30,0.1055
8687,2,0.1292
8688,6,0.1863
8689,10,0.1950
8690,24,0.1761
8691,24,0.2166
8692,24,0.3011
8693,24,0.2579
8694,10,0.2125
8695,24,0.1358
8696,19,0.1674
8698,24,0.1216
8700,33,0.3306
8701,33,0.2579
8702,32,0.1643
8704,24,0.3142
8705,1,0.3502
8706,11,0.2700
8707,31,0.1072
8708,32,0.2795
8709,33,0.2259
8710,33,0.2155
8711,11,0.1526
8714,8,0.2482
8715,21,0.1803
8716,19,0.1447
8717,19,0.2022
8718,0,0.2763
8719,0,0.4519
8720,0,0.4750
8721,21,0.3558
8722,11,0.2027
8723,11,0.3370
8724,11,0.2083
8725,21,0.1715
8726,0,0.1107
8727,11,0.1370
8728,15,0.1633
8729,31,0.2007
8730,0,0.2481
8731,21,0.1806
8732,19,0.1621
8733,7,0.1743
8734,15,0.2010
8735,19,0.1780
8736,19,0.1752
8737,32,0.1383
8739,5,0.1172
8740,7,0.1359
8741,7,0.1273
8742,21,0.1387
8743,7,0.1265
8744,24,0.1464
8745,24,0.2355
8746,19,0.1689
8747,24,0.3043
8748,24,0.4729
8749,24,0.2180
8750,8,0.3630
8751,9,0.2599
8752,8,0.1678
8753,9,0.2977
8754,8,0.4701
8755,8,0.3370
8756,8,0.1573
8757,8,0.3630
8758,9,0.1796
8759,9,0.2621
8760,8,0.1832
8761,8,0.1901
8762,8,0.5486
8763,24,0.1933
8764,19,0.2149
8765,19,0.1340
8766,21,0.2146
8767,19,0.1877
8768,24,0.4771
8769,24,0.4851
8770,24,0.4291
8771,24,0.6003
8772,8,0.1578
8773,24,0.2252
8774,24,0.1531
8775,9,0.1443
8776,24,0.3646
8777,7,0.2629
8778,21,0.1597
8779,19,0.1592
8780,24,0.2669
8781,21,0.1273
8782,8,0.1780
8783,24,0.2482
8784,21,0.1681
8785,19,0.1335
8786,24,0.4498
8787,24,0.2070
8788,24,0.2183
8789,24,0.1528
8790,8,0.3652
8791,8,0.2694
8792,24,0.2903
8793,24,0.4958
8794,21,0.1184
8795,0,0.2449
8796,0,0.3421
8797,11,0.1550
8798,21,0.1985
8799,21,0.2093
8800,21,0.1824
8801,23,0.1654
8802,23,0.1692
8803,6,0.1185
8804,24,0.1531
8805,21,0.1415
8806,19,0.1439
8807,19,0.1700
8808,5,0.1732
8809,5,0.2508
8810,5,0.2296
8811,19,0.1316
8812,19,0.2085
8813,19,0.2454
8814,8,0.2736
8815,10,0.1708
8816,19,0.1385
8817,21,0.1496
8818,7,0.1125
8819,7,0.1389
8820,0,0.1442
8821,11,0.2484
8822,7,0.2275
8823,7,0.1542
8824,24,0.1091
8825,24,0.1247
8826,5,0.1723
8828,19,0.1034
8829,7,0.3251
8830,5,0.1171
8832,7,0.2017
8833,7,0.1930
8834,21,0.1640
8835,21,0.1756
8836,19,0.2279
8837,5,0.1036
8838,5,0.1113
8839,21,0.1409
8840,8,0.1439
8841,7,0.1413
8842,7,0.1735
8843,7,0.2144
8844,7,0.2313
8845,7,0.1718
8846,7,0.1493
8848,19,0.1522
8849,19,0.1618
8850,19,0.1706
8851,5,0.1068
8852,21,0.1389
8853,7,0.1561
8854,7,0.1613
8855,7,0.1297
8856,7,0.1608
8857,24,0.2182
8858,11,0.1654
8859,11,0.2608
8860,24,0.2533
8861,21,0.2378
8862,11,0.2328
8863,21,0.2211
8864,19,0.1173
8865,5,0.1432
8866,5,0.1247
8867,19,0.1425
8868,8,0.3025
8869,8,0.1480
8870,8,0.1534
8871,7,0.1477
8872,7,0.1873
8873,24,0.2012
8874,19,0.1508
8875,7,0.2250
8876,21,0.1797
8877,21,0.1791
8878,7,0.2773
8879,7,0.2755
8880,24,0.1469
8881,24,0.1727
8882,7,0.2095
8883,24,0.2157
8884,7,0.1604
8885,7,0.1577
8886,24,0.2132
8887,7,0.1736
8888,7,0.1535
8889,7,0.2239
8890,19,0.1473
8891,7,0.1303
8892,19,0.2044
8893,12,0.1165
8894,19,0.1489
8895,6,0.1038
8896,19,0.1098
8897,19,0.1412
8898,0,0.3176
8899,16,0.1040
8900,10,0.1793
8901,19,0.1219
8902,5,0.1619
8903,11,0.1442
8904,11,0.1509
8905,11,0.2548
8906,11,0.2868
8907,21,0.2115
8908,24,0.2055
8909,21,0.2345
8910,24,0.2415
8911,24,0.3151
8912,24,0.2334
8913,21,0.1624
8914,24,0.1469
8915,21,0.1676
8916,19,0.1287
8917,24,0.2114
8918,24,0.1661
8919,24,0.2712
8920,24,0.2880
8921,8,0.2076
8922,8,0.3638
8923,8,0.1583
8924,24,0.1708
8925,19,0.1365
8926,19,0.1573
8927,7,0.1737
8928,7,0.1691
8929,7,0.2274
8930,7,0.1639
8931,7,0.2181
8932,24,0.1883
8933,21,0.1905
8934,22,0.1129
8935,19,0.1333
8936,22,0.1128
8937,22,0.1076
8938,4,0.2290
8939,22,0.1119
8940,19,0.1472
8941,24,0.1921
8942,7,0.2566
8943,7,0.1692
8944,19,0.1311
8945,7,0.1849
8946,0,0.2235
8947,21,0.2423
8948,21,0.2242
8949,21,0.2121
8950,19,0.1260
8951,24,0.1614
8952,19,0.1689
8953,19,0.2210
8954,7,0.3489
8955,15,0.1776
8956,23,0.1543
8957,23,0.1733
8958,7,0.1576
8959,7,0.1575
8960,7,0.1181
8961,6,0.1124
8962,5,0.2084
8963,5,0.1408
8964,7,0.2339
8965,7,0.2146
8966,5,0.1402
8967,7,0.1437
8968,7,0.1461
8969,1,0.1255
8970,8,0.2525
8971,21,0.1592
8972,7,0.1316
8973,19,0.1028
8974,23,0.1199
8975,24,0.1403
8976,5,0.1728
8977,7,0.1845
8978,19,0.1352
8979,24,0.1528
8980,24,0.1514
8982,28,0.1150
8983,12,0.1743
8984,2,0.1727
8985,28,0.1085
8986,16,0.1237
8987,21,0.1590
8988,7,0.2085
8989,19,0.1543
8990,19,0.1742
8991,7,0.1459
8992,7,0.1425
8993,21,0.1176
8994,21,0.2066
8995,7,0.1590
8996,15,0.1537
8997,0,0.2031
8998,0,0.1788
8999,0,0.3333
9000,30,0.2297
9001,8,0.1830
9002,0,0.2264
9003,30,0.1312
9004,21,0.1431
9005,0,0.1919
9006,21,0.1294
9007,23,0.1514
9008,15,0.1702
9009,15,0.1708
9010,19,0.1674
9011,15,0.1610
9012,21,0.2839
9013,21,0.4066
9014,0,0.3176
9015,0,0.2533
9016,21,0.2115
9017,21,0.1855
9018,21,0.1687
9019,0,0.2749
9020,0,0.3936
9021,0,0.2703
9022,0,0.2007
9023,0,0.2266
9024,21,0.1969
9025,20,0.1474
9026,23,0.1085
9027,19,0.2501
9028,19,0.1347
9029,16,0.2854
9030,16,0.2696
9031,5,0.1748
9032,4,0.1356
9033,4,0.3669
9034,0,0.2046
9037,5,0.1166
9038,32,0.1118
9039,5,0.1456
9040,8,0.1534
9041,24,0.3102
9042,23,0.1972
9043,19,0.1365
9044,19,0.3525
9045,24,0.2172
9046,19,0.2057
9047,19,0.1688
9048,19,0.2330
9049,7,0.1854
9050,7,0.1689
9051,7,0.1943
9052,7,0.2182
9053,5,0.1847
9054,7,0.2607
9055,7,0.1838
9056,7,0.2124
9057,7,0.2384
9058,7,0.1736
9059,24,0.2345
9060,7,0.1379
9061,21,0.2258
9062,5,0.1537
9063,7,0.2632
9064,24,0.4695
9065,19,0.1697
9066,7,0.2517
9067,7,0.2073
9068,24,0.1710
9069,24,0.2239
9070,7,0.2369
9071,7,0.2606
9072,24,0.3608
9073,24,0.2290
9074,21,0.2133
9075,19,0.2131
9076,7,0.1666
9077,24,0.2181
9078,24,0.1955
9079,21,0.1285
9080,7,0.1471
9081,7,0.1868
9082,7,0.2000
9083,28,0.1220
9084,28,0.1522
9085,5,0.2256
9086,7,0.1716
9087,21,0.1407
9088,24,0.2649
9089,21,0.1486
9090,21,0.2223
9091,0,0.2417
9092,7,0.3175
9093,7,0.2059
9094,7,0.3599
9095,24,0.1717
9096,19,0.1691
9097,7,0.1734
9098,24,0.2240
9099,21,0.1398
9100,8,0.2508
9101,19,0.2758
9102,8,0.2789
9103,8,0.1882
9104,8,0.2007
9105,7,0.1905
9106,19,0.2024
9107,19,0.1706
9108,19,0.1908
9109,21,0.1795
9110,19,0.1573
9111,19,0.1828
9112,5,0.2055
9113,7,0.1471
9114,8,0.3516
9115,8,0.5150
9116,8,0.2906
9117,8,0.2931
9118,8,0.6798
9119,8,0.2620
9120,21,0.1070
9121,8,0.1839
9122,0,0.1697
9123,11,0.2543
9124,9,0.3311
9125,8,0.4785
9126,21,0.1739
9127,0,0.1358
9128,16,0.1094
9130,9,0.1827
9131,8,0.1345
9132,19,0.1705
9133,8,0.1867
9134,8,0.1706
9135,8,0.2454
9136,8,0.2695
9137,8,0.1504
9138,8,0.1781
9139,8,0.2450
9140,8,0.4979
9141,21,0.1585
9142,21,0.1215
9143,8,0.1780
9144,8,0.1318
9146,9,0.2285
9147,8,0.1272
9149,5,0.1802
9150,5,0.1657
9151,9,0.1509
9152,9,0.2565
9154,19,0.1200
9155,9,0.2164
9159,8,0.3810
9160,8,0.7204
9161,8,0.3673
9162,8,0.5037
9163,8,0.3300
9164,9,0.1173
9165,8,0.1161
9166,9,0.1426
9167,19,0.2343
9168,7,0.1906
9169,9,0.1491
9170,19,0.1922
9171,8,0.2648
9172,9,0.2909
9173,1,0.2303
9174,1,0.1087
9175,21,0.1090
9177,28,0.1691
9178,12,0.1693
9179,1,0.1500
9189,21,0.1286
9190,8,0.1256
9191,5,0.1693
9192,5,0.1233
9193,21,0.1451
9194,21,0.1246
9195,8,0.2841
9196,8,0.6873
9198,21,0.1173
9199,21,0.1269
9200,21,0.1213
9201,21,0.1087
9202,24,0.1085
9203,24,0.1092
9207,9,0.1170
9208,9,0.3493
9209,8,0.8231
9210,8,0.6216
9211,8,0.7232
9212,8,0.6743
